'Id: "" Comment: "" Operator: "Administrator" Anode: "Cu" Scantype: "Locked Coupled" TimePerStep: "182.5" X: "0" Y: "0" Z: "0" 
20.0000 2.888
20.0165 2.827
20.0331 2.800
20.0496 2.499
20.0662 2.674
20.0827 2.553
20.0993 2.899
20.1158 2.636
20.1324 2.707
20.1489 2.674
20.1655 2.833
20.1820 2.811
20.1985 2.614
20.2151 2.789
20.2316 2.866
20.2482 2.564
20.2647 2.482
20.2813 2.888
20.2978 2.784
20.3144 2.663
20.3309 2.575
20.3475 2.564
20.3640 2.586
20.3805 2.532
20.3971 2.674
20.4136 2.701
20.4302 2.504
20.4467 2.542
20.4633 2.614
20.4798 2.745
20.4964 2.773
20.5129 2.493
20.5295 2.575
20.5460 2.658
20.5625 2.597
20.5791 2.614
20.5956 2.614
20.6122 2.707
20.6287 2.411
20.6453 2.537
20.6618 2.597
20.6784 2.652
20.6949 2.553
20.7115 2.532
20.7280 2.203
20.7445 2.433
20.7611 2.597
20.7776 2.378
20.7942 2.663
20.8107 2.510
20.8273 2.570
20.8438 2.668
20.8604 2.329
20.8769 2.438
20.8935 2.471
20.9100 2.586
20.9265 2.466
20.9431 2.718
20.9596 2.515
20.9762 2.625
20.9927 2.745
21.0093 2.482
21.0258 2.537
21.0424 2.515
21.0589 2.378
21.0755 2.438
21.0920 2.515
21.1085 2.553
21.1251 2.416
21.1416 2.592
21.1582 2.329
21.1747 2.586
21.1913 2.455
21.2078 2.323
21.2244 2.351
21.2409 2.373
21.2575 2.471
21.2740 2.575
21.2905 2.395
21.3071 2.466
21.3236 2.477
21.3402 2.433
21.3567 2.416
21.3733 2.367
21.3898 2.296
21.4064 2.444
21.4229 2.488
21.4394 2.334
21.4560 2.416
21.4725 2.510
21.4891 2.416
21.5056 2.701
21.5222 2.279
21.5387 2.734
21.5553 2.362
21.5718 2.564
21.5884 2.422
21.6049 2.581
21.6214 2.466
21.6380 2.515
21.6545 2.526
21.6711 2.378
21.6876 2.575
21.7042 2.663
21.7207 2.427
21.7373 2.570
21.7538 2.510
21.7704 2.466
21.7869 2.395
21.8034 2.521
21.8200 2.351
21.8365 2.526
21.8531 2.455
21.8696 2.323
21.8862 2.586
21.9027 2.170
21.9193 2.405
21.9358 2.444
21.9524 2.400
21.9689 2.433
21.9854 2.389
22.0020 2.389
22.0185 2.449
22.0351 2.542
22.0516 2.444
22.0682 2.553
22.0847 2.252
22.1013 2.186
22.1178 2.455
22.1344 2.389
22.1509 2.515
22.1674 2.389
22.1840 2.630
22.2005 2.553
22.2171 2.307
22.2336 2.318
22.2502 2.384
22.2667 2.438
22.2833 2.477
22.2998 2.247
22.3164 2.532
22.3329 2.323
22.3494 2.225
22.3660 2.345
22.3825 2.493
22.3991 2.334
22.4156 2.241
22.4322 2.307
22.4487 2.416
22.4653 2.142
22.4818 2.384
22.4984 2.159
22.5149 2.263
22.5314 2.389
22.5480 2.455
22.5645 2.247
22.5811 2.274
22.5976 2.241
22.6142 2.192
22.6307 2.197
22.6473 2.351
22.6638 2.279
22.6804 2.181
22.6969 2.395
22.7134 2.203
22.7300 2.279
22.7465 2.285
22.7631 2.033
22.7796 2.192
22.7962 2.159
22.8127 2.104
22.8293 2.449
22.8458 2.334
22.8624 2.236
22.8789 2.258
22.8954 2.373
22.9120 2.115
22.9285 2.066
22.9451 2.384
22.9616 2.378
22.9782 2.170
22.9947 2.301
23.0113 2.400
23.0278 2.345
23.0444 2.258
23.0609 2.219
23.0774 2.142
23.0940 2.164
23.1105 2.225
23.1271 2.066
23.1436 2.362
23.1602 2.077
23.1767 2.252
23.1933 2.164
23.2098 2.192
23.2264 2.236
23.2429 2.301
23.2594 2.279
23.2760 2.438
23.2925 2.186
23.3091 2.203
23.3256 2.312
23.3422 2.055
23.3587 1.951
23.3753 2.296
23.3918 2.186
23.4084 2.153
23.4249 2.071
23.4414 2.082
23.4580 2.230
23.4745 2.148
23.4911 2.110
23.5076 2.115
23.5242 2.263
23.5407 2.268
23.5573 2.164
23.5738 2.148
23.5904 2.307
23.6069 2.071
23.6234 2.258
23.6400 2.121
23.6565 2.066
23.6731 2.093
23.6896 2.219
23.7062 2.159
23.7227 2.268
23.7393 2.071
23.7558 2.367
23.7724 2.175
23.7889 2.132
23.8054 2.258
23.8220 2.274
23.8385 2.389
23.8551 2.252
23.8716 2.334
23.8882 2.164
23.9047 2.230
23.9213 2.411
23.9378 2.290
23.9544 2.389
23.9709 2.570
23.9874 2.323
24.0040 2.296
24.0205 2.526
24.0371 2.323
24.0536 2.488
24.0702 2.553
24.0867 2.581
24.1033 2.553
24.1198 2.521
24.1364 2.553
24.1529 2.707
24.1694 2.718
24.1860 2.707
24.2025 2.668
24.2191 2.597
24.2356 2.592
24.2522 2.734
24.2687 2.740
24.2853 2.619
24.3018 2.712
24.3183 2.652
24.3349 2.679
24.3514 2.647
24.3680 2.789
24.3845 2.641
24.4011 2.844
24.4176 2.773
24.4342 2.510
24.4507 2.564
24.4673 2.871
24.4838 2.904
24.5003 2.564
24.5169 2.767
24.5334 2.745
24.5500 2.553
24.5665 2.729
24.5831 2.647
24.5996 2.811
24.6162 2.767
24.6327 2.833
24.6493 2.805
24.6658 2.948
24.6823 2.625
24.6989 2.619
24.7154 2.844
24.7320 2.647
24.7485 2.915
24.7651 2.822
24.7816 2.937
24.7982 2.860
24.8147 2.679
24.8313 2.800
24.8478 2.932
24.8643 2.882
24.8809 2.751
24.8974 2.975
24.9140 2.805
24.9305 2.910
24.9471 2.784
24.9636 2.690
24.9802 2.860
24.9967 2.937
25.0133 2.932
25.0298 2.805
25.0463 2.729
25.0629 2.964
25.0794 3.096
25.0960 2.986
25.1125 2.997
25.1291 3.014
25.1456 3.112
25.1622 3.003
25.1787 3.019
25.1953 3.271
25.2118 3.085
25.2283 3.452
25.2449 3.326
25.2614 3.397
25.2780 3.458
25.2945 3.638
25.3111 3.907
25.3276 4.559
25.3442 4.762
25.3607 5.244
25.3773 5.847
25.3938 6.214
25.4103 6.992
25.4269 8.499
25.4434 9.984
25.4600 12.099
25.4765 14.373
25.4931 18.542
25.5096 22.619
25.5262 28.619
25.5427 33.014
25.5593 36.800
25.5758 36.186
25.5923 34.800
25.6089 29.458
25.6254 25.578
25.6420 21.353
25.6585 16.384
25.6751 12.871
25.6916 9.249
25.7082 7.156
25.7247 5.638
25.7413 5.140
25.7578 4.203
25.7743 3.951
25.7909 3.726
25.8074 3.162
25.8240 3.321
25.8405 3.244
25.8571 3.178
25.8736 3.173
25.8902 2.740
25.9067 2.942
25.9233 2.712
25.9398 3.019
25.9563 2.849
25.9729 2.636
25.9894 2.592
26.0060 2.532
26.0225 2.816
26.0391 2.608
26.0556 2.608
26.0722 2.619
26.0887 2.592
26.1053 2.630
26.1218 2.427
26.1383 2.515
26.1549 2.455
26.1714 2.373
26.1880 2.416
26.2045 2.564
26.2211 2.323
26.2376 2.553
26.2542 2.153
26.2707 2.526
26.2873 2.510
26.3038 2.340
26.3203 2.488
26.3369 2.055
26.3534 2.285
26.3700 2.575
26.3865 2.422
26.4031 2.334
26.4196 2.373
26.4362 2.274
26.4527 2.378
26.4693 2.411
26.4858 2.274
26.5023 2.203
26.5189 2.422
26.5354 2.115
26.5520 2.356
26.5685 2.153
26.5851 2.110
26.6016 2.016
26.6182 2.301
26.6347 2.060
26.6513 2.159
26.6678 2.307
26.6843 2.241
26.7009 2.159
26.7174 2.121
26.7340 2.279
26.7505 2.186
26.7671 2.022
26.7836 2.088
26.8002 2.225
26.8167 2.071
26.8333 2.027
26.8498 2.279
26.8663 2.258
26.8829 2.066
26.8994 2.088
26.9160 1.748
26.9325 1.956
26.9491 2.049
26.9656 2.164
26.9822 1.940
26.9987 2.115
27.0152 1.951
27.0318 2.219
27.0483 1.945
27.0649 2.005
27.0814 2.082
27.0980 1.962
27.1145 2.099
27.1311 2.110
27.1476 2.137
27.1642 2.186
27.1807 1.858
27.1972 2.104
27.2138 1.973
27.2303 2.247
27.2469 2.044
27.2634 2.236
27.2800 1.847
27.2965 1.929
27.3131 1.907
27.3296 1.978
27.3462 1.956
27.3627 1.814
27.3792 1.929
27.3958 2.093
27.4123 2.066
27.4289 2.110
27.4454 1.929
27.4620 2.033
27.4785 2.055
27.4951 2.208
27.5116 2.038
27.5282 1.847
27.5447 2.005
27.5612 2.060
27.5778 2.142
27.5943 1.934
27.6109 1.940
27.6274 2.005
27.6440 2.126
27.6605 1.989
27.6771 1.803
27.6936 2.011
27.7102 1.879
27.7267 1.814
27.7432 2.044
27.7598 1.858
27.7763 1.945
27.7929 1.660
27.8094 1.951
27.8260 1.989
27.8425 1.912
27.8591 1.688
27.8756 2.126
27.8922 1.726
27.9087 1.929
27.9252 1.858
27.9418 1.885
27.9583 1.984
27.9749 1.753
27.9914 1.660
28.0080 1.589
28.0245 1.737
28.0411 2.071
28.0576 1.721
28.0742 1.841
28.0907 1.841
28.1072 1.956
28.1238 1.896
28.1403 1.912
28.1569 1.929
28.1734 1.688
28.1900 1.748
28.2065 1.973
28.2231 1.742
28.2396 1.710
28.2562 1.699
28.2727 1.885
28.2892 1.770
28.3058 1.830
28.3223 1.633
28.3389 1.649
28.3554 1.808
28.3720 1.858
28.3885 1.879
28.4051 1.677
28.4216 1.710
28.4382 1.819
28.4547 1.655
28.4712 1.825
28.4878 1.644
28.5043 1.764
28.5209 1.660
28.5374 1.666
28.5540 1.715
28.5705 1.660
28.5871 1.655
28.6036 1.858
28.6202 1.611
28.6367 1.682
28.6532 1.518
28.6698 1.770
28.6863 1.710
28.7029 1.693
28.7194 1.693
28.7360 1.616
28.7525 1.671
28.7691 1.759
28.7856 1.660
28.8022 1.649
28.8187 1.753
28.8352 1.688
28.8518 1.874
28.8683 1.611
28.8849 1.671
28.9014 1.633
28.9180 1.518
28.9345 1.605
28.9511 1.605
28.9676 1.627
28.9842 1.688
29.0007 1.600
29.0172 1.644
29.0338 1.507
29.0503 1.375
29.0669 1.512
29.0834 1.595
29.1000 1.534
29.1165 1.677
29.1331 1.397
29.1496 1.501
29.1662 1.551
29.1827 1.677
29.1992 1.627
29.2158 1.611
29.2323 1.518
29.2489 1.463
29.2654 1.419
29.2820 1.638
29.2985 1.337
29.3151 1.710
29.3316 1.627
29.3482 1.452
29.3647 1.573
29.3812 1.556
29.3978 1.573
29.4143 1.485
29.4309 1.529
29.4474 1.704
29.4640 1.490
29.4805 1.397
29.4971 1.584
29.5136 1.529
29.5302 1.534
29.5467 1.479
29.5632 1.545
29.5798 1.589
29.5963 1.616
29.6129 1.556
29.6294 1.468
29.6460 1.474
29.6625 1.556
29.6791 1.600
29.6956 1.556
29.7121 1.567
29.7287 1.474
29.7452 1.584
29.7618 1.507
29.7783 1.589
29.7949 1.425
29.8114 1.556
29.8280 1.419
29.8445 1.616
29.8611 1.392
29.8776 1.392
29.8941 1.430
29.9107 1.299
29.9272 1.518
29.9438 1.490
29.9603 1.567
29.9769 1.342
29.9934 1.293
30.0100 1.468
30.0265 1.353
30.0431 1.496
30.0596 1.479
30.0761 1.310
30.0927 1.375
30.1092 1.523
30.1258 1.551
30.1423 1.271
30.1589 1.299
30.1754 1.567
30.1920 1.468
30.2085 1.485
30.2251 1.573
30.2416 1.288
30.2581 1.408
30.2747 1.501
30.2912 1.507
30.3078 1.523
30.3243 1.501
30.3409 1.485
30.3574 1.375
30.3740 1.463
30.3905 1.337
30.4071 1.249
30.4236 1.430
30.4401 1.430
30.4567 1.375
30.4732 1.501
30.4898 1.255
30.5063 1.315
30.5229 1.255
30.5394 1.425
30.5560 1.403
30.5725 1.266
30.5891 1.523
30.6056 1.321
30.6221 1.359
30.6387 1.310
30.6552 1.348
30.6718 1.419
30.6883 1.370
30.7049 1.436
30.7214 1.337
30.7380 1.392
30.7545 1.353
30.7711 1.556
30.7876 1.364
30.8041 1.342
30.8207 1.353
30.8372 1.342
30.8538 1.332
30.8703 1.392
30.8869 1.293
30.9034 1.288
30.9200 1.348
30.9365 1.342
30.9531 1.216
30.9696 1.244
30.9861 1.310
31.0027 1.315
31.0192 1.211
31.0358 1.326
31.0523 1.392
31.0689 1.430
31.0854 1.326
31.1020 1.271
31.1185 1.249
31.1351 1.348
31.1516 1.200
31.1681 1.304
31.1847 1.304
31.2012 1.381
31.2178 1.266
31.2343 1.271
31.2509 1.277
31.2674 1.408
31.2840 1.216
31.3005 1.419
31.3171 1.321
31.3336 1.321
31.3501 1.425
31.3667 1.370
31.3832 1.216
31.3998 1.348
31.4163 1.222
31.4329 1.266
31.4494 1.260
31.4660 1.321
31.4825 1.408
31.4991 1.249
31.5156 1.299
31.5321 1.227
31.5487 1.315
31.5652 1.288
31.5818 1.304
31.5983 1.348
31.6149 1.249
31.6314 1.249
31.6480 1.299
31.6645 1.419
31.6811 1.326
31.6976 1.326
31.7141 1.249
31.7307 1.293
31.7472 1.200
31.7638 1.216
31.7803 1.315
31.7969 1.123
31.8134 1.282
31.8300 1.249
31.8465 1.266
31.8631 1.233
31.8796 1.222
31.8961 1.036
31.9127 1.167
31.9292 1.249
31.9458 1.140
31.9623 1.178
31.9789 1.112
31.9954 1.156
32.0120 1.282
32.0285 1.090
32.0451 1.195
32.0616 1.156
32.0781 1.266
32.0947 1.255
32.1112 1.090
32.1278 1.167
32.1443 1.047
32.1609 1.047
32.1774 1.277
32.1940 1.162
32.2105 1.079
32.2271 1.156
32.2436 1.288
32.2601 1.151
32.2767 1.145
32.2932 1.156
32.3098 1.195
32.3263 1.200
32.3429 1.025
32.3594 1.189
32.3760 1.337
32.3925 1.151
32.4091 1.167
32.4256 1.068
32.4421 1.233
32.4587 1.008
32.4752 1.123
32.4918 1.107
32.5083 1.107
32.5249 1.019
32.5414 1.293
32.5580 1.052
32.5745 1.079
32.5910 1.058
32.6076 1.216
32.6241 1.151
32.6407 1.184
32.6572 0.986
32.6738 1.151
32.6903 1.167
32.7069 1.003
32.7234 1.200
32.7400 1.293
32.7565 1.173
32.7730 1.041
32.7896 1.195
32.8061 1.195
32.8227 1.200
32.8392 1.173
32.8558 0.981
32.8723 1.162
32.8889 1.090
32.9054 1.260
32.9220 1.085
32.9385 1.058
32.9550 1.074
32.9716 1.063
32.9881 1.090
33.0047 1.151
33.0212 1.200
33.0378 1.063
33.0543 1.068
33.0709 1.107
33.0874 1.112
33.1040 1.052
33.1205 0.882
33.1370 1.140
33.1536 1.030
33.1701 0.992
33.1867 1.112
33.2032 1.134
33.2198 1.216
33.2363 1.118
33.2529 1.156
33.2694 1.025
33.2860 1.189
33.3025 1.019
33.3190 1.118
33.3356 1.167
33.3521 0.970
33.3687 1.134
33.3852 1.184
33.4018 0.986
33.4183 1.112
33.4349 1.238
33.4514 1.134
33.4680 1.255
33.4845 1.063
33.5010 1.173
33.5176 1.162
33.5341 1.299
33.5507 1.025
33.5672 1.151
33.5838 1.101
33.6003 0.992
33.6169 1.101
33.6334 1.277
33.6500 1.074
33.6665 1.189
33.6830 1.101
33.6996 1.085
33.7161 1.096
33.7327 0.997
33.7492 1.123
33.7658 1.195
33.7823 1.156
33.7989 1.277
33.8154 1.205
33.8320 0.981
33.8485 1.200
33.8650 1.036
33.8816 1.227
33.8981 1.249
33.9147 1.118
33.9312 1.277
33.9478 1.244
33.9643 1.321
33.9809 1.375
33.9974 1.397
34.0140 1.403
34.0305 1.255
34.0470 1.288
34.0636 1.299
34.0801 1.189
34.0967 1.277
34.1132 1.337
34.1298 1.173
34.1463 1.255
34.1629 1.332
34.1794 1.216
34.1960 1.452
34.2125 1.200
34.2290 1.195
34.2456 1.271
34.2621 1.293
34.2787 1.348
34.2952 1.353
34.3118 1.271
34.3283 1.282
34.3449 1.436
34.3614 1.359
34.3780 1.436
34.3945 1.353
34.4110 1.348
34.4276 1.370
34.4441 1.611
34.4607 1.534
34.4772 1.414
34.4938 1.458
34.5103 1.518
34.5269 1.479
34.5434 1.595
34.5600 1.408
34.5765 1.567
34.5930 1.430
34.6096 1.688
34.6261 1.732
34.6427 1.595
34.6592 1.556
34.6758 1.967
34.6923 1.595
34.7089 1.573
34.7254 2.164
34.7420 2.290
34.7585 2.241
34.7750 2.362
34.7916 2.384
34.8081 2.641
34.8247 2.970
34.8412 3.189
34.8578 3.874
34.8743 3.808
34.8909 4.258
34.9074 5.036
34.9240 5.655
34.9405 6.537
34.9570 7.841
34.9736 9.195
34.9901 11.063
35.0067 12.953
35.0232 15.770
35.0398 19.436
35.0563 24.225
35.0729 29.803
35.0894 36.937
35.1060 43.227
35.1225 48.701
35.1390 47.951
35.1556 45.030
35.1721 38.663
35.1887 32.970
35.2052 31.074
35.2218 27.808
35.2383 23.737
35.2549 18.362
35.2714 13.381
35.2879 9.693
35.3045 6.685
35.3210 5.178
35.3376 4.121
35.3541 3.381
35.3707 3.277
35.3872 2.904
35.4038 2.592
35.4203 2.312
35.4369 2.312
35.4534 1.945
35.4699 2.170
35.4865 2.077
35.5030 1.699
35.5196 1.633
35.5361 1.704
35.5527 1.523
35.5692 1.403
35.5858 1.611
35.6023 1.584
35.6189 1.458
35.6354 1.666
35.6519 1.584
35.6685 1.353
35.6850 1.189
35.7016 1.397
35.7181 1.392
35.7347 1.288
35.7512 1.485
35.7678 1.342
35.7843 1.315
35.8009 1.359
35.8174 1.299
35.8339 1.288
35.8505 1.173
35.8670 1.205
35.8836 1.167
35.9001 1.260
35.9167 1.195
35.9332 1.140
35.9498 1.370
35.9663 1.326
35.9829 1.233
35.9994 1.112
36.0159 1.118
36.0325 1.216
36.0490 1.227
36.0656 1.068
36.0821 0.948
36.0987 1.058
36.1152 1.184
36.1318 1.123
36.1483 1.085
36.1649 1.156
36.1814 1.036
36.1979 1.030
36.2145 1.145
36.2310 1.068
36.2476 1.233
36.2641 1.096
36.2807 1.151
36.2972 0.953
36.3138 1.173
36.3303 0.959
36.3469 1.238
36.3634 1.118
36.3799 1.058
36.3965 1.058
36.4130 1.101
36.4296 1.074
36.4461 1.085
36.4627 1.260
36.4792 1.145
36.4958 1.123
36.5123 1.074
36.5289 1.008
36.5454 1.178
36.5619 1.058
36.5785 1.123
36.5950 1.096
36.6116 1.233
36.6281 1.145
36.6447 1.200
36.6612 1.162
36.6778 1.167
36.6943 0.975
36.7109 0.975
36.7274 1.129
36.7439 1.151
36.7605 1.074
36.7770 1.162
36.7936 1.211
36.8101 1.195
36.8267 1.112
36.8432 1.112
36.8598 1.151
36.8763 1.156
36.8929 0.997
36.9094 0.997
36.9259 1.058
36.9425 1.041
36.9590 1.189
36.9756 1.052
36.9921 1.167
37.0087 1.200
37.0252 0.997
37.0418 1.216
37.0583 1.205
37.0749 1.282
37.0914 1.129
37.1079 1.085
37.1245 1.167
37.1410 1.140
37.1576 1.353
37.1741 1.140
37.1907 1.244
37.2072 1.211
37.2238 1.249
37.2403 1.178
37.2569 1.370
37.2734 1.184
37.2899 1.255
37.3065 1.397
37.3230 1.184
37.3396 1.277
37.3561 1.573
37.3727 1.375
37.3892 1.518
37.4058 1.578
37.4223 1.633
37.4389 1.786
37.4554 1.879
37.4719 2.121
37.4885 2.088
37.5050 2.362
37.5216 2.526
37.5381 2.614
37.5547 3.156
37.5712 3.545
37.5878 4.285
37.6043 4.586
37.6209 5.266
37.6374 6.225
37.6539 7.600
37.6705 8.734
37.6870 11.523
37.7036 13.458
37.7201 15.945
37.7367 18.964
37.7532 19.677
37.7698 19.079
37.7863 16.860
37.8029 14.871
37.8194 13.671
37.8359 11.962
37.8525 11.205
37.8690 10.285
37.8856 8.323
37.9021 6.186
37.9187 4.384
37.9352 3.611
37.9518 2.756
37.9683 2.307
37.9848 1.956
38.0014 1.984
38.0179 1.688
38.0345 1.611
38.0510 1.381
38.0676 1.178
38.0841 1.359
38.1007 1.244
38.1172 1.249
38.1338 1.211
38.1503 1.178
38.1668 1.079
38.1834 1.293
38.1999 1.348
38.2165 1.112
38.2330 1.167
38.2496 1.249
38.2661 1.156
38.2827 0.981
38.2992 0.921
38.3158 1.222
38.3323 1.249
38.3488 1.025
38.3654 1.068
38.3819 1.047
38.3985 1.096
38.4150 0.997
38.4316 1.085
38.4481 1.030
38.4647 1.047
38.4812 1.036
38.4978 1.063
38.5143 1.189
38.5308 1.074
38.5474 1.047
38.5639 1.030
38.5805 0.997
38.5970 0.942
38.6136 1.030
38.6301 1.052
38.6467 1.074
38.6632 0.986
38.6798 1.090
38.6963 1.041
38.7128 0.953
38.7294 1.030
38.7459 0.899
38.7625 0.888
38.7790 0.959
38.7956 0.877
38.8121 0.838
38.8287 0.975
38.8452 0.997
38.8618 0.816
38.8783 1.025
38.8948 1.014
38.9114 0.997
38.9279 1.036
38.9445 1.129
38.9610 0.964
38.9776 1.068
38.9941 1.068
39.0107 0.871
39.0272 1.003
39.0438 0.953
39.0603 1.047
39.0768 0.981
39.0934 0.866
39.1099 0.833
39.1265 0.964
39.1430 0.926
39.1596 0.893
39.1761 0.904
39.1927 0.827
39.2092 0.981
39.2258 0.866
39.2423 0.970
39.2588 0.893
39.2754 0.937
39.2919 0.805
39.3085 0.942
39.3250 0.784
39.3416 0.926
39.3581 0.882
39.3747 0.899
39.3912 0.926
39.4078 0.762
39.4243 0.784
39.4408 0.926
39.4574 0.844
39.4739 0.986
39.4905 0.866
39.5070 0.981
39.5236 0.921
39.5401 0.849
39.5567 0.773
39.5732 0.866
39.5898 1.003
39.6063 0.942
39.6228 0.882
39.6394 0.767
39.6559 0.882
39.6725 0.915
39.6890 0.827
39.7056 0.795
39.7221 1.052
39.7387 0.855
39.7552 0.877
39.7718 0.937
39.7883 0.888
39.8048 0.811
39.8214 0.827
39.8379 0.866
39.8545 0.800
39.8710 0.860
39.8876 0.981
39.9041 0.888
39.9207 0.877
39.9372 0.893
39.9538 0.827
39.9703 0.805
39.9868 0.723
40.0034 0.844
40.0199 0.860
40.0365 0.893
40.0530 0.893
40.0696 1.003
40.0861 0.888
40.1027 0.953
40.1192 0.981
40.1358 0.778
40.1523 0.838
40.1688 0.866
40.1854 0.751
40.2019 0.981
40.2185 0.921
40.2350 0.882
40.2516 0.871
40.2681 0.915
40.2847 0.767
40.3012 0.844
40.3178 0.800
40.3343 0.838
40.3508 0.877
40.3674 0.827
40.3839 0.816
40.4005 0.811
40.4170 0.844
40.4336 0.882
40.4501 0.860
40.4667 0.915
40.4832 0.915
40.4998 0.992
40.5163 0.866
40.5328 0.745
40.5494 0.915
40.5659 0.789
40.5825 0.701
40.5990 0.921
40.6156 0.756
40.6321 0.778
40.6487 0.762
40.6652 0.838
40.6818 0.751
40.6983 0.838
40.7148 0.816
40.7314 0.805
40.7479 0.827
40.7645 0.762
40.7810 0.811
40.7976 0.893
40.8141 0.816
40.8307 0.784
40.8472 0.816
40.8637 0.740
40.8803 1.019
40.8968 0.816
40.9134 0.888
40.9299 0.811
40.9465 0.827
40.9630 0.871
40.9796 0.762
40.9961 0.877
41.0127 0.849
41.0292 0.904
41.0457 0.800
41.0623 0.866
41.0788 0.833
41.0954 0.822
41.1119 0.707
41.1285 0.723
41.1450 0.784
41.1616 0.795
41.1781 0.855
41.1947 0.751
41.2112 0.926
41.2277 0.767
41.2443 0.926
41.2608 0.849
41.2774 0.718
41.2939 0.866
41.3105 0.838
41.3270 0.800
41.3436 0.816
41.3601 0.975
41.3767 0.855
41.3932 0.778
41.4097 0.745
41.4263 0.805
41.4428 0.784
41.4594 0.915
41.4759 0.696
41.4925 0.888
41.5090 0.915
41.5256 0.893
41.5421 0.833
41.5587 0.926
41.5752 1.003
41.5917 0.904
41.6083 1.063
41.6248 1.244
41.6414 1.255
41.6579 1.156
41.6745 1.381
41.6910 1.189
41.7076 1.244
41.7241 0.997
41.7407 1.036
41.7572 1.107
41.7737 1.145
41.7903 1.140
41.8068 1.101
41.8234 1.019
41.8399 0.997
41.8565 1.079
41.8730 0.970
41.8896 1.068
41.9061 1.008
41.9227 0.959
41.9392 0.899
41.9557 0.975
41.9723 1.025
41.9888 0.948
42.0054 1.019
42.0219 1.101
42.0385 1.019
42.0550 1.008
42.0716 0.844
42.0881 1.123
42.1047 0.926
42.1212 1.079
42.1377 0.860
42.1543 0.915
42.1708 0.959
42.1874 0.882
42.2039 0.915
42.2205 0.992
42.2370 0.932
42.2536 0.893
42.2701 0.882
42.2867 0.992
42.3032 0.986
42.3197 0.986
42.3363 0.992
42.3528 0.921
42.3694 0.932
42.3859 0.964
42.4025 0.860
42.4190 0.959
42.4356 1.025
42.4521 1.134
42.4687 1.047
42.4852 1.025
42.5017 1.129
42.5183 0.893
42.5348 0.992
42.5514 0.981
42.5679 1.074
42.5845 1.118
42.6010 1.074
42.6176 1.348
42.6341 1.008
42.6507 1.041
42.6672 1.173
42.6837 1.173
42.7003 1.178
42.7168 1.156
42.7334 1.195
42.7499 1.260
42.7665 1.227
42.7830 1.184
42.7996 1.392
42.8161 1.238
42.8327 1.353
42.8492 1.414
42.8657 1.666
42.8823 1.682
42.8988 1.830
42.9154 2.066
42.9319 2.060
42.9485 2.137
42.9650 2.258
42.9816 2.630
42.9981 2.729
43.0147 3.030
43.0312 3.441
43.0477 3.666
43.0643 4.115
43.0808 4.756
43.0974 5.342
43.1139 6.082
43.1305 7.096
43.1470 8.438
43.1636 9.715
43.1801 11.540
43.1967 12.729
43.2132 16.214
43.2297 19.699
43.2463 23.671
43.2628 28.460
43.2794 33.551
43.2959 40.186
43.3125 46.373
43.3290 48.285
43.3456 45.068
43.3621 39.907
43.3787 33.101
43.3952 30.137
43.4117 27.803
43.4283 27.244
43.4448 25.545
43.4614 21.748
43.4779 17.375
43.4945 13.019
43.5110 9.315
43.5276 6.723
43.5441 5.403
43.5606 3.984
43.5772 3.562
43.5937 2.795
43.6103 2.718
43.6268 2.132
43.6434 2.203
43.6599 1.918
43.6765 1.836
43.6930 1.523
43.7096 1.726
43.7261 1.584
43.7426 1.545
43.7592 1.403
43.7757 1.271
43.7923 1.299
43.8088 1.392
43.8254 1.381
43.8419 1.195
43.8585 1.167
43.8750 1.266
43.8916 1.277
43.9081 1.052
43.9246 1.063
43.9412 1.101
43.9577 1.085
43.9743 1.156
43.9908 1.052
44.0074 1.058
44.0239 0.959
44.0405 1.260
44.0570 1.014
44.0736 1.041
44.0901 1.079
44.1066 1.047
44.1232 0.926
44.1397 0.866
44.1563 1.041
44.1728 0.915
44.1894 1.003
44.2059 0.953
44.2225 0.959
44.2390 0.734
44.2556 0.937
44.2721 1.036
44.2886 0.942
44.3052 0.981
44.3217 0.833
44.3383 0.855
44.3548 0.822
44.3714 0.904
44.3879 0.882
44.4045 0.893
44.4210 0.888
44.4376 0.608
44.4541 0.877
44.4706 0.882
44.4872 0.833
44.5037 0.877
44.5203 0.992
44.5368 0.844
44.5534 0.784
44.5699 0.756
44.5865 0.778
44.6030 0.778
44.6196 0.805
44.6361 0.877
44.6526 0.866
44.6692 0.910
44.6857 0.822
44.7023 0.778
44.7188 0.827
44.7354 0.789
44.7519 0.871
44.7685 0.729
44.7850 0.767
44.8016 0.751
44.8181 0.866
44.8346 0.926
44.8512 0.674
44.8677 0.756
44.8843 0.718
44.9008 0.784
44.9174 0.838
44.9339 0.762
44.9505 0.778
44.9670 0.833
44.9836 0.707
45.0001 0.762
45.0166 0.827
45.0332 0.910
45.0497 0.795
45.0663 0.734
45.0828 0.784
45.0994 0.751
45.1159 0.795
45.1325 0.871
45.1490 0.751
45.1656 0.685
45.1821 0.860
45.1986 0.816
45.2152 0.948
45.2317 0.849
45.2483 0.773
45.2648 0.729
45.2814 0.701
45.2979 0.844
45.3145 0.833
45.3310 0.636
45.3476 0.838
45.3641 0.734
45.3806 0.729
45.3972 0.773
45.4137 0.652
45.4303 0.844
45.4468 0.756
45.4634 0.756
45.4799 0.899
45.4965 0.685
45.5130 0.855
45.5296 0.723
45.5461 0.718
45.5626 0.619
45.5792 0.734
45.5957 0.767
45.6123 0.734
45.6288 0.658
45.6454 0.762
45.6619 0.800
45.6785 0.745
45.6950 0.734
45.7116 0.614
45.7281 0.756
45.7446 0.745
45.7612 0.647
45.7777 0.696
45.7943 0.740
45.8108 0.690
45.8274 0.707
45.8439 0.762
45.8605 0.685
45.8770 0.811
45.8936 0.723
45.9101 0.860
45.9266 0.723
45.9432 0.762
45.9597 0.910
45.9763 0.893
45.9928 0.882
46.0094 0.778
46.0259 0.904
46.0425 0.948
46.0590 0.921
46.0756 0.932
46.0921 0.932
46.1086 1.244
46.1252 1.112
46.1417 1.397
46.1583 1.315
46.1748 1.222
46.1914 1.151
46.2079 0.953
46.2245 1.014
46.2410 0.937
46.2575 0.849
46.2741 0.888
46.2906 0.986
46.3072 0.948
46.3237 0.778
46.3403 0.937
46.3568 0.712
46.3734 0.668
46.3899 0.647
46.4065 0.745
46.4230 0.674
46.4395 0.559
46.4561 0.827
46.4726 0.767
46.4892 0.625
46.5057 0.630
46.5223 0.668
46.5388 0.641
46.5554 0.690
46.5719 0.575
46.5885 0.701
46.6050 0.652
46.6215 0.696
46.6381 0.729
46.6546 0.723
46.6712 0.679
46.6877 0.603
46.7043 0.674
46.7208 0.784
46.7374 0.740
46.7539 0.718
46.7705 0.740
46.7870 0.679
46.8035 0.696
46.8201 0.690
46.8366 0.707
46.8532 0.751
46.8697 0.636
46.8863 0.756
46.9028 0.619
46.9194 0.630
46.9359 0.625
46.9525 0.707
46.9690 0.696
46.9855 0.603
47.0021 0.597
47.0186 0.690
47.0352 0.723
47.0517 0.663
47.0683 0.652
47.0848 0.800
47.1014 0.696
47.1179 0.608
47.1345 0.751
47.1510 0.679
47.1675 0.701
47.1841 0.696
47.2006 0.718
47.2172 0.740
47.2337 0.663
47.2503 0.723
47.2668 0.619
47.2834 0.641
47.2999 0.614
47.3165 0.740
47.3330 0.614
47.3495 0.690
47.3661 0.658
47.3826 0.608
47.3992 0.674
47.4157 0.658
47.4323 0.679
47.4488 0.652
47.4654 0.614
47.4819 0.652
47.4985 0.696
47.5150 0.647
47.5315 0.564
47.5481 0.619
47.5646 0.658
47.5812 0.712
47.5977 0.570
47.6143 0.586
47.6308 0.537
47.6474 0.734
47.6639 0.625
47.6805 0.658
47.6970 0.652
47.7135 0.679
47.7301 0.690
47.7466 0.641
47.7632 0.586
47.7797 0.570
47.7963 0.712
47.8128 0.690
47.8294 0.608
47.8459 0.586
47.8625 0.603
47.8790 0.597
47.8955 0.652
47.9121 0.564
47.9286 0.652
47.9452 0.619
47.9617 0.603
47.9783 0.570
47.9948 0.564
48.0114 0.668
48.0279 0.586
48.0445 0.652
48.0610 0.597
48.0775 0.575
48.0941 0.586
48.1106 0.701
48.1272 0.603
48.1437 0.575
48.1603 0.592
48.1768 0.553
48.1934 0.553
48.2099 0.641
48.2265 0.723
48.2430 0.647
48.2595 0.559
48.2761 0.597
48.2926 0.581
48.3092 0.630
48.3257 0.570
48.3423 0.597
48.3588 0.564
48.3754 0.619
48.3919 0.559
48.4085 0.658
48.4250 0.575
48.4415 0.597
48.4581 0.619
48.4746 0.679
48.4912 0.663
48.5077 0.647
48.5243 0.614
48.5408 0.636
48.5574 0.712
48.5739 0.537
48.5905 0.564
48.6070 0.630
48.6235 0.553
48.6401 0.592
48.6566 0.636
48.6732 0.674
48.6897 0.603
48.7063 0.636
48.7228 0.723
48.7394 0.570
48.7559 0.603
48.7725 0.526
48.7890 0.597
48.8055 0.592
48.8221 0.608
48.8386 0.553
48.8552 0.668
48.8717 0.542
48.8883 0.559
48.9048 0.636
48.9214 0.521
48.9379 0.592
48.9545 0.564
48.9710 0.521
48.9875 0.597
49.0041 0.619
49.0206 0.581
49.0372 0.586
49.0537 0.586
49.0703 0.625
49.0868 0.493
49.1034 0.608
49.1199 0.559
49.1364 0.619
49.1530 0.592
49.1695 0.564
49.1861 0.586
49.2026 0.542
49.2192 0.537
49.2357 0.581
49.2523 0.658
49.2688 0.685
49.2854 0.559
49.3019 0.603
49.3184 0.597
49.3350 0.685
49.3515 0.559
49.3681 0.521
49.3846 0.641
49.4012 0.597
49.4177 0.647
49.4343 0.564
49.4508 0.597
49.4674 0.586
49.4839 0.515
49.5004 0.668
49.5170 0.652
49.5335 0.608
49.5501 0.542
49.5666 0.553
49.5832 0.597
49.5997 0.526
49.6163 0.499
49.6328 0.542
49.6494 0.532
49.6659 0.663
49.6824 0.663
49.6990 0.586
49.7155 0.521
49.7321 0.603
49.7486 0.553
49.7652 0.586
49.7817 0.586
49.7983 0.690
49.8148 0.833
49.8314 0.679
49.8479 0.559
49.8644 0.619
49.8810 0.537
49.8975 0.696
49.9141 0.630
49.9306 0.586
49.9472 0.668
49.9637 0.570
49.9803 0.679
49.9968 0.521
50.0134 0.619
50.0299 0.663
50.0464 0.625
50.0630 0.641
50.0795 0.630
50.0961 0.679
50.1126 0.521
50.1292 0.641
50.1457 0.564
50.1623 0.586
50.1788 0.570
50.1954 0.510
50.2119 0.564
50.2284 0.685
50.2450 0.559
50.2615 0.548
50.2781 0.641
50.2946 0.652
50.3112 0.575
50.3277 0.559
50.3443 0.581
50.3608 0.548
50.3774 0.575
50.3939 0.548
50.4104 0.608
50.4270 0.636
50.4435 0.630
50.4601 0.619
50.4766 0.570
50.4932 0.641
50.5097 0.586
50.5263 0.553
50.5428 0.647
50.5594 0.559
50.5759 0.625
50.5924 0.603
50.6090 0.592
50.6255 0.619
50.6421 0.499
50.6586 0.712
50.6752 0.542
50.6917 0.597
50.7083 0.668
50.7248 0.762
50.7414 0.564
50.7579 0.619
50.7744 0.740
50.7910 0.625
50.8075 0.592
50.8241 0.614
50.8406 0.619
50.8572 0.718
50.8737 0.647
50.8903 0.619
50.9068 0.641
50.9234 0.658
50.9399 0.685
50.9564 0.658
50.9730 0.548
50.9895 0.679
51.0061 0.641
51.0226 0.647
51.0392 0.630
51.0557 0.592
51.0723 0.696
51.0888 0.570
51.1054 0.625
51.1219 0.586
51.1384 0.608
51.1550 0.597
51.1715 0.701
51.1881 0.707
51.2046 0.652
51.2212 0.740
51.2377 0.614
51.2543 0.636
51.2708 0.729
51.2874 0.734
51.3039 0.696
51.3204 0.723
51.3370 0.734
51.3535 0.729
51.3701 0.855
51.3866 0.838
51.4032 0.707
51.4197 0.740
51.4363 0.800
51.4528 0.784
51.4694 0.816
51.4859 0.668
51.5024 0.701
51.5190 0.625
51.5355 0.729
51.5521 0.652
51.5686 0.614
51.5852 0.674
51.6017 0.707
51.6183 0.723
51.6348 0.729
51.6514 0.679
51.6679 0.674
51.6844 0.592
51.7010 0.844
51.7175 0.904
51.7341 0.707
51.7506 0.630
51.7672 0.674
51.7837 0.658
51.8003 0.816
51.8168 0.658
51.8333 0.690
51.8499 0.740
51.8664 0.795
51.8830 0.696
51.8995 0.789
51.9161 0.795
51.9326 0.762
51.9492 0.866
51.9657 0.811
51.9823 0.921
51.9988 0.953
52.0153 0.882
52.0319 1.041
52.0484 0.844
52.0650 1.030
52.0815 1.151
52.0981 1.134
52.1146 1.326
52.1312 1.310
52.1477 1.162
52.1643 1.436
52.1808 1.595
52.1973 1.748
52.2139 2.071
52.2304 2.044
52.2470 2.318
52.2635 2.395
52.2801 2.866
52.2966 2.997
52.3132 3.304
52.3297 4.132
52.3463 4.608
52.3628 5.112
52.3793 6.652
52.3959 7.408
52.4124 8.718
52.4290 10.016
52.4455 12.405
52.4621 14.071
52.4786 16.542
52.4952 18.975
52.5117 19.962
52.5283 20.345
52.5448 18.208
52.5613 15.523
52.5779 13.485
52.5944 11.118
52.6110 10.521
52.6275 10.926
52.6441 11.178
52.6606 10.679
52.6772 9.485
52.6937 7.814
52.7103 5.841
52.7268 4.301
52.7433 3.584
52.7599 2.855
52.7764 2.181
52.7930 1.847
52.8095 1.584
52.8261 1.479
52.8426 1.408
52.8592 1.244
52.8757 1.189
52.8923 1.041
52.9088 1.129
52.9253 1.047
52.9419 1.025
52.9584 0.959
52.9750 0.871
52.9915 0.827
53.0081 0.838
53.0246 0.756
53.0412 0.773
53.0577 0.756
53.0743 0.778
53.0908 0.805
53.1073 0.816
53.1239 0.767
53.1404 0.838
53.1570 0.740
53.1735 0.641
53.1901 0.740
53.2066 0.723
53.2232 0.641
53.2397 0.592
53.2563 0.647
53.2728 0.838
53.2893 0.603
53.3059 0.614
53.3224 0.564
53.3390 0.614
53.3555 0.751
53.3721 0.679
53.3886 0.663
53.4052 0.597
53.4217 0.679
53.4383 0.586
53.4548 0.575
53.4713 0.614
53.4879 0.608
53.5044 0.614
53.5210 0.597
53.5375 0.570
53.5541 0.614
53.5706 0.647
53.5872 0.526
53.6037 0.663
53.6203 0.542
53.6368 0.685
53.6533 0.663
53.6699 0.641
53.6864 0.625
53.7030 0.712
53.7195 0.619
53.7361 0.685
53.7526 0.619
53.7692 0.679
53.7857 0.575
53.8023 0.586
53.8188 0.707
53.8353 0.586
53.8519 0.608
53.8684 0.526
53.8850 0.636
53.9015 0.652
53.9181 0.636
53.9346 0.581
53.9512 0.625
53.9677 0.679
53.9843 0.570
54.0008 0.581
54.0173 0.564
54.0339 0.542
54.0504 0.444
54.0670 0.718
54.0835 0.515
54.1001 0.542
54.1166 0.619
54.1332 0.586
54.1497 0.526
54.1663 0.592
54.1828 0.597
54.1993 0.575
54.2159 0.504
54.2324 0.548
54.2490 0.663
54.2655 0.581
54.2821 0.570
54.2986 0.526
54.3152 0.586
54.3317 0.532
54.3483 0.526
54.3648 0.608
54.3813 0.493
54.3979 0.597
54.4144 0.603
54.4310 0.570
54.4475 0.586
54.4641 0.526
54.4806 0.537
54.4972 0.608
54.5137 0.575
54.5302 0.499
54.5468 0.537
54.5633 0.537
54.5799 0.608
54.5964 0.652
54.6130 0.592
54.6295 0.570
54.6461 0.685
54.6626 0.570
54.6792 0.564
54.6957 0.532
54.7122 0.515
54.7288 0.482
54.7453 0.444
54.7619 0.586
54.7784 0.510
54.7950 0.636
54.8115 0.636
54.8281 0.641
54.8446 0.570
54.8612 0.614
54.8777 0.619
54.8942 0.521
54.9108 0.526
54.9273 0.521
54.9439 0.488
54.9604 0.630
54.9770 0.553
54.9935 0.586
55.0101 0.504
55.0266 0.625
55.0432 0.521
55.0597 0.553
55.0762 0.592
55.0928 0.553
55.1093 0.521
55.1259 0.614
55.1424 0.608
55.1590 0.608
55.1755 0.510
55.1921 0.570
55.2086 0.564
55.2252 0.636
55.2417 0.548
55.2582 0.608
55.2748 0.575
55.2913 0.548
55.3079 0.575
55.3244 0.625
55.3410 0.603
55.3575 0.636
55.3741 0.712
55.3906 0.548
55.4072 0.597
55.4237 0.734
55.4402 0.690
55.4568 0.510
55.4733 0.707
55.4899 0.690
55.5064 0.625
55.5230 0.696
55.5395 0.625
55.5561 0.751
55.5726 0.586
55.5892 0.625
55.6057 0.701
55.6222 0.668
55.6388 0.707
55.6553 0.658
55.6719 0.614
55.6884 0.658
55.7050 0.641
55.7215 0.652
55.7381 0.625
55.7546 0.636
55.7712 0.805
55.7877 0.663
55.8042 0.619
55.8208 0.795
55.8373 0.608
55.8539 0.690
55.8704 0.734
55.8870 0.614
55.9035 0.499
55.9201 0.592
55.9366 0.696
55.9532 0.652
55.9697 0.647
55.9862 0.636
56.0028 0.696
56.0193 0.532
56.0359 0.658
56.0524 0.778
56.0690 0.619
56.0855 0.586
56.1021 0.625
56.1186 0.679
56.1352 0.696
56.1517 0.614
56.1682 0.729
56.1848 0.674
56.2013 0.844
56.2179 0.625
56.2344 0.822
56.2510 0.553
56.2675 0.734
56.2841 0.586
56.3006 0.652
56.3172 0.756
56.3337 0.767
56.3502 0.685
56.3668 0.625
56.3833 0.696
56.3999 0.668
56.4164 0.745
56.4330 0.784
56.4495 0.773
56.4661 0.740
56.4826 0.767
56.4992 0.674
56.5157 0.537
56.5322 0.871
56.5488 0.690
56.5653 0.658
56.5819 0.778
56.5984 0.800
56.6150 0.625
56.6315 0.734
56.6481 0.751
56.6646 0.871
56.6812 0.756
56.6977 0.893
56.7142 0.888
56.7308 0.773
56.7473 0.833
56.7639 0.959
56.7804 0.745
56.7970 0.910
56.8135 0.778
56.8301 0.959
56.8466 1.063
56.8632 1.030
56.8797 1.008
56.8962 1.030
56.9128 1.090
56.9293 1.041
56.9459 1.134
56.9624 1.326
56.9790 1.425
56.9955 1.556
57.0121 1.589
57.0286 1.693
57.0452 1.879
57.0617 1.748
57.0782 2.110
57.0948 2.340
57.1113 2.592
57.1279 3.090
57.1444 3.101
57.1610 3.468
57.1775 3.907
57.1941 4.488
57.2106 4.712
57.2272 5.271
57.2437 5.863
57.2602 7.036
57.2768 8.055
57.2933 8.849
57.3099 10.521
57.3264 12.164
57.3430 14.833
57.3595 17.627
57.3761 20.268
57.3926 24.104
57.4091 28.784
57.4257 33.841
57.4422 37.534
57.4588 39.759
57.4753 37.978
57.4919 34.849
57.5084 27.912
57.5250 23.929
57.5415 20.373
57.5581 19.616
57.5746 20.066
57.5911 19.600
57.6077 19.973
57.6242 20.115
57.6408 18.132
57.6573 14.438
57.6739 10.915
57.6904 7.912
57.7070 5.973
57.7235 4.734
57.7401 3.732
57.7566 3.041
57.7731 2.559
57.7897 2.301
57.8062 2.230
57.8228 1.737
57.8393 1.693
57.8559 1.638
57.8724 1.364
57.8890 1.381
57.9055 1.430
57.9221 1.332
57.9386 1.162
57.9551 1.052
57.9717 1.134
57.9882 1.118
58.0048 0.959
58.0213 1.096
58.0379 0.838
58.0544 1.019
58.0710 1.052
58.0875 0.893
58.1041 0.877
58.1206 0.981
58.1371 0.805
58.1537 0.888
58.1702 0.685
58.1868 0.844
58.2033 0.784
58.2199 0.800
58.2364 0.844
58.2530 0.773
58.2695 0.729
58.2861 0.767
58.3026 0.729
58.3191 0.773
58.3357 0.647
58.3522 0.751
58.3688 0.718
58.3853 0.647
58.4019 0.778
58.4184 0.718
58.4350 0.668
58.4515 0.685
58.4681 0.641
58.4846 0.641
58.5011 0.668
58.5177 0.647
58.5342 0.745
58.5508 0.696
58.5673 0.542
58.5839 0.592
58.6004 0.619
58.6170 0.619
58.6335 0.685
58.6501 0.701
58.6666 0.488
58.6831 0.614
58.6997 0.619
58.7162 0.658
58.7328 0.685
58.7493 0.652
58.7659 0.532
58.7824 0.575
58.7990 0.570
58.8155 0.532
58.8321 0.515
58.8486 0.668
58.8651 0.592
58.8817 0.537
58.8982 0.570
58.9148 0.597
58.9313 0.575
58.9479 0.542
58.9644 0.592
58.9810 0.668
58.9975 0.592
59.0141 0.603
59.0306 0.597
59.0471 0.712
59.0637 0.614
59.0802 0.592
59.0968 0.625
59.1133 0.679
59.1299 0.614
59.1464 0.504
59.1630 0.597
59.1795 0.625
59.1961 0.608
59.2126 0.542
59.2291 0.641
59.2457 0.586
59.2622 0.564
59.2788 0.614
59.2953 0.526
59.3119 0.532
59.3284 0.658
59.3450 0.570
59.3615 0.723
59.3781 0.586
59.3946 0.734
59.4111 0.707
59.4277 0.756
59.4442 0.712
59.4608 0.559
59.4773 0.773
59.4939 0.751
59.5104 0.789
59.5270 0.838
59.5435 0.816
59.5601 0.899
59.5766 0.877
59.5931 0.970
59.6097 1.134
59.6262 0.981
59.6428 1.162
59.6593 1.337
59.6759 1.282
59.6924 1.425
59.7090 1.567
59.7255 1.364
59.7421 1.353
59.7586 1.216
59.7751 1.019
59.7917 0.942
59.8082 1.036
59.8248 0.992
59.8413 1.003
59.8579 1.036
59.8744 0.986
59.8910 0.986
59.9075 0.986
59.9241 0.756
59.9406 0.701
59.9571 0.647
59.9737 0.625
59.9902 0.564
60.0068 0.559
60.0233 0.581
60.0399 0.636
60.0564 0.542
60.0730 0.493
60.0895 0.570
60.1060 0.603
60.1226 0.537
60.1391 0.537
60.1557 0.619
60.1722 0.625
60.1888 0.663
60.2053 0.564
60.2219 0.521
60.2384 0.537
60.2550 0.570
60.2715 0.532
60.2880 0.597
60.3046 0.515
60.3211 0.553
60.3377 0.449
60.3542 0.575
60.3708 0.537
60.3873 0.570
60.4039 0.532
60.4204 0.553
60.4370 0.521
60.4535 0.570
60.4700 0.553
60.4866 0.685
60.5031 0.608
60.5197 0.532
60.5362 0.592
60.5528 0.548
60.5693 0.564
60.5859 0.597
60.6024 0.668
60.6190 0.542
60.6355 0.756
60.6520 0.619
60.6686 0.800
60.6851 0.570
60.7017 0.685
60.7182 0.674
60.7348 0.641
60.7513 0.701
60.7679 0.652
60.7844 0.586
60.8010 0.888
60.8175 0.762
60.8340 0.718
60.8506 0.800
60.8671 0.833
60.8837 0.882
60.9002 0.921
60.9168 1.003
60.9333 0.877
60.9499 1.184
60.9664 1.205
60.9830 1.315
60.9995 1.364
61.0160 1.677
61.0326 1.868
61.0491 1.907
61.0657 2.252
61.0822 2.197
61.0988 2.400
61.1153 2.384
61.1319 2.532
61.1484 2.340
61.1650 2.707
61.1815 2.816
61.1980 3.162
61.2146 3.205
61.2311 3.770
61.2477 4.192
61.2642 4.137
61.2808 3.726
61.2973 3.101
61.3139 2.795
61.3304 2.521
61.3470 2.170
61.3635 1.852
61.3800 1.874
61.3966 2.104
61.4131 2.274
61.4297 1.890
61.4462 2.005
61.4628 1.693
61.4793 1.501
61.4959 1.178
61.5124 0.893
61.5290 0.899
61.5455 0.663
61.5620 0.767
61.5786 0.696
61.5951 0.679
61.6117 0.685
61.6282 0.636
61.6448 0.663
61.6613 0.619
61.6779 0.537
61.6944 0.553
61.7110 0.614
61.7275 0.592
61.7440 0.608
61.7606 0.493
61.7771 0.559
61.7937 0.504
61.8102 0.477
61.8268 0.438
61.8433 0.532
61.8599 0.526
61.8764 0.537
61.8930 0.542
61.9095 0.636
61.9260 0.466
61.9426 0.526
61.9591 0.625
61.9757 0.444
61.9922 0.586
62.0088 0.427
62.0253 0.444
62.0419 0.471
62.0584 0.526
62.0750 0.504
62.0915 0.575
62.1080 0.521
62.1246 0.537
62.1411 0.471
62.1577 0.526
62.1742 0.427
62.1908 0.499
62.2073 0.482
62.2239 0.488
62.2404 0.586
62.2570 0.427
62.2735 0.515
62.2900 0.521
62.3066 0.455
62.3231 0.422
62.3397 0.427
62.3562 0.499
62.3728 0.608
62.3893 0.460
62.4059 0.488
62.4224 0.515
62.4390 0.521
62.4555 0.493
62.4720 0.488
62.4886 0.411
62.5051 0.416
62.5217 0.614
62.5382 0.559
62.5548 0.515
62.5713 0.416
62.5879 0.564
62.6044 0.482
62.6210 0.493
62.6375 0.433
62.6540 0.433
62.6706 0.405
62.6871 0.460
62.7037 0.444
62.7202 0.488
62.7368 0.433
62.7533 0.537
62.7699 0.488
62.7864 0.532
62.8029 0.466
62.8195 0.466
62.8360 0.466
62.8526 0.488
62.8691 0.586
62.8857 0.586
62.9022 0.532
62.9188 0.433
62.9353 0.488
62.9519 0.422
62.9684 0.482
62.9849 0.444
63.0015 0.433
63.0180 0.482
63.0346 0.449
63.0511 0.466
63.0677 0.444
63.0842 0.395
63.1008 0.482
63.1173 0.471
63.1339 0.405
63.1504 0.510
63.1669 0.444
63.1835 0.493
63.2000 0.389
63.2166 0.471
63.2331 0.471
63.2497 0.504
63.2662 0.477
63.2828 0.553
63.2993 0.373
63.3159 0.460
63.3324 0.532
63.3489 0.559
63.3655 0.466
63.3820 0.482
63.3986 0.438
63.4151 0.493
63.4317 0.521
63.4482 0.400
63.4648 0.449
63.4813 0.422
63.4979 0.504
63.5144 0.515
63.5309 0.488
63.5475 0.455
63.5640 0.521
63.5806 0.526
63.5971 0.422
63.6137 0.471
63.6302 0.427
63.6468 0.466
63.6633 0.499
63.6799 0.608
63.6964 0.405
63.7129 0.323
63.7295 0.460
63.7460 0.395
63.7626 0.433
63.7791 0.466
63.7957 0.290
63.8122 0.449
63.8288 0.493
63.8453 0.411
63.8619 0.493
63.8784 0.477
63.8949 0.532
63.9115 0.416
63.9280 0.455
63.9446 0.515
63.9611 0.482
63.9777 0.455
63.9942 0.542
64.0108 0.532
64.0273 0.455
64.0439 0.482
64.0604 0.433
64.0769 0.471
64.0935 0.575
64.1100 0.575
64.1266 0.477
64.1431 0.493
64.1597 0.510
64.1762 0.548
64.1928 0.521
64.2093 0.427
64.2259 0.603
64.2424 0.537
64.2589 0.526
64.2755 0.455
64.2920 0.422
64.3086 0.526
64.3251 0.553
64.3417 0.438
64.3582 0.521
64.3748 0.532
64.3913 0.488
64.4079 0.526
64.4244 0.455
64.4409 0.477
64.4575 0.493
64.4740 0.455
64.4906 0.471
64.5071 0.471
64.5237 0.499
64.5402 0.521
64.5568 0.553
64.5733 0.411
64.5899 0.488
64.6064 0.521
64.6229 0.416
64.6395 0.542
64.6560 0.510
64.6726 0.564
64.6891 0.570
64.7057 0.521
64.7222 0.553
64.7388 0.466
64.7553 0.597
64.7719 0.427
64.7884 0.488
64.8049 0.493
64.8215 0.581
64.8380 0.477
64.8546 0.504
64.8711 0.411
64.8877 0.504
64.9042 0.548
64.9208 0.597
64.9373 0.532
64.9539 0.515
64.9704 0.482
64.9869 0.493
65.0035 0.460
65.0200 0.542
65.0366 0.449
65.0531 0.477
65.0697 0.537
65.0862 0.521
65.1028 0.532
65.1193 0.521
65.1359 0.521
65.1524 0.427
65.1689 0.499
65.1855 0.411
65.2020 0.526
65.2186 0.488
65.2351 0.532
65.2517 0.586
65.2682 0.510
65.2848 0.422
65.3013 0.532
65.3179 0.532
65.3344 0.537
65.3509 0.466
65.3675 0.652
65.3840 0.433
65.4006 0.460
65.4171 0.619
65.4337 0.510
65.4502 0.493
65.4668 0.575
65.4833 0.515
65.4999 0.526
65.5164 0.614
65.5329 0.570
65.5495 0.548
65.5660 0.636
65.5826 0.482
65.5991 0.608
65.6157 0.696
65.6322 0.597
65.6488 0.575
65.6653 0.630
65.6818 0.570
65.6984 0.663
65.7149 0.614
65.7315 0.712
65.7480 0.608
65.7646 0.586
65.7811 0.603
65.7977 0.636
65.8142 0.553
65.8308 0.603
65.8473 0.614
65.8638 0.658
65.8804 0.789
65.8969 0.652
65.9135 0.718
65.9300 0.707
65.9466 0.762
65.9631 0.762
65.9797 0.789
65.9962 0.915
66.0128 0.948
66.0293 0.849
66.0458 0.822
66.0624 1.003
66.0789 1.019
66.0955 1.260
66.1120 1.332
66.1286 1.386
66.1451 1.397
66.1617 1.682
66.1782 1.622
66.1948 1.863
66.2113 1.956
66.2278 2.099
66.2444 2.674
66.2609 2.838
66.2775 3.025
66.2940 3.600
66.3106 3.934
66.3271 4.696
66.3437 5.359
66.3602 5.918
66.3768 7.129
66.3933 8.466
66.4098 9.430
66.4264 10.915
66.4429 12.597
66.4595 13.271
66.4760 13.797
66.4926 13.003
66.5091 11.792
66.5257 9.649
66.5422 8.471
66.5588 6.866
66.5753 5.907
66.5918 6.351
66.6084 6.482
66.6249 6.882
66.6415 7.036
66.6580 7.216
66.6746 6.959
66.6911 5.918
66.7077 4.877
66.7242 4.137
66.7408 2.948
66.7573 2.405
66.7738 2.110
66.7904 1.633
66.8069 1.419
66.8235 1.430
66.8400 1.211
66.8566 1.101
66.8731 1.189
66.8897 0.855
66.9062 0.888
66.9228 0.904
66.9393 0.849
66.9558 0.926
66.9724 0.800
66.9889 0.838
67.0055 0.833
67.0220 0.871
67.0386 0.849
67.0551 0.789
67.0717 0.800
67.0882 0.756
67.1048 0.707
67.1213 0.641
67.1378 0.762
67.1544 0.778
67.1709 0.740
67.1875 0.690
67.2040 0.696
67.2206 0.762
67.2371 0.778
67.2537 0.712
67.2702 0.707
67.2868 0.833
67.3033 0.701
67.3198 0.690
67.3364 0.773
67.3529 0.647
67.3695 0.674
67.3860 0.658
67.4026 0.641
67.4191 0.586
67.4357 0.838
67.4522 0.723
67.4688 0.734
67.4853 0.723
67.5018 0.745
67.5184 0.707
67.5349 0.789
67.5515 0.827
67.5680 0.795
67.5846 0.712
67.6011 0.855
67.6177 0.882
67.6342 0.937
67.6508 1.052
67.6673 1.063
67.6838 1.068
67.7004 1.090
67.7169 1.156
67.7335 1.249
67.7500 1.200
67.7666 1.375
67.7831 1.479
67.7997 1.436
67.8162 1.819
67.8328 2.104
67.8493 1.951
67.8658 2.290
67.8824 2.247
67.8989 2.849
67.9155 3.041
67.9320 3.348
67.9486 4.066
67.9651 4.323
67.9817 5.195
67.9982 5.699
68.0148 6.460
68.0313 8.016
68.0478 8.964
68.0644 10.159
68.0809 11.682
68.0975 13.764
68.1140 15.616
68.1306 18.389
68.1471 19.814
68.1637 20.449
68.1802 19.545
68.1968 17.638
68.2133 14.674
68.2298 12.219
68.2464 10.016
68.2629 9.364
68.2795 8.921
68.2960 9.222
68.3126 9.534
68.3291 10.389
68.3457 10.186
68.3622 10.307
68.3787 10.126
68.3953 8.060
68.4118 6.400
68.4284 4.838
68.4449 3.759
68.4615 3.008
68.4780 2.252
68.4946 1.934
68.5111 1.649
68.5277 1.556
68.5442 1.359
68.5607 1.282
68.5773 1.036
68.5938 1.090
68.6104 1.003
68.6269 1.003
68.6435 0.893
68.6600 0.915
68.6766 0.910
68.6931 0.816
68.7097 0.784
68.7262 0.592
68.7427 0.740
68.7593 0.778
68.7758 0.751
68.7924 0.636
68.8089 0.652
68.8255 0.592
68.8420 0.564
68.8586 0.647
68.8751 0.663
68.8917 0.608
68.9082 0.581
68.9247 0.597
68.9413 0.619
68.9578 0.575
68.9744 0.636
68.9909 0.614
69.0075 0.597
69.0240 0.422
69.0406 0.597
69.0571 0.493
69.0737 0.548
69.0902 0.438
69.1067 0.608
69.1233 0.559
69.1398 0.499
69.1564 0.592
69.1729 0.488
69.1895 0.548
69.2060 0.532
69.2226 0.455
69.2391 0.444
69.2557 0.526
69.2722 0.526
69.2887 0.438
69.3053 0.564
69.3218 0.455
69.3384 0.482
69.3549 0.526
69.3715 0.537
69.3880 0.488
69.4046 0.586
69.4211 0.477
69.4377 0.548
69.4542 0.471
69.4707 0.499
69.4873 0.521
69.5038 0.553
69.5204 0.455
69.5369 0.460
69.5535 0.477
69.5700 0.477
69.5866 0.510
69.6031 0.515
69.6197 0.499
69.6362 0.378
69.6527 0.515
69.6693 0.521
69.6858 0.526
69.7024 0.422
69.7189 0.411
69.7355 0.411
69.7520 0.499
69.7686 0.477
69.7851 0.433
69.8017 0.510
69.8182 0.542
69.8347 0.477
69.8513 0.521
69.8678 0.400
69.8844 0.499
69.9009 0.455
69.9175 0.438
69.9340 0.384
69.9506 0.477
69.9671 0.438
69.9837 0.482
70.0002 0.378
