'Id: "" Comment: "" Operator: "Administrator" Anode: "Cu" Scantype: "Locked Coupled" TimePerStep: "182.5" X: "0" Y: "0" Z: "0" 
20.0000 2.460
20.0165 2.301
20.0331 2.422
20.0496 2.422
20.0662 2.274
20.0827 2.471
20.0993 2.493
20.1158 2.608
20.1324 2.466
20.1489 2.318
20.1655 2.296
20.1820 2.296
20.1985 2.488
20.2151 2.532
20.2316 2.455
20.2482 2.362
20.2647 2.619
20.2813 2.400
20.2978 2.258
20.3144 2.444
20.3309 2.471
20.3475 2.411
20.3640 2.334
20.3805 2.263
20.3971 2.186
20.4136 2.471
20.4302 2.214
20.4467 2.400
20.4633 2.405
20.4798 2.455
20.4964 2.400
20.5129 2.384
20.5295 2.159
20.5460 2.175
20.5625 2.356
20.5791 2.466
20.5956 2.455
20.6122 2.236
20.6287 2.219
20.6453 2.395
20.6618 2.197
20.6784 2.493
20.6949 2.334
20.7115 2.252
20.7280 2.351
20.7445 2.318
20.7611 2.230
20.7776 2.236
20.7942 2.351
20.8107 2.208
20.8273 2.362
20.8438 2.351
20.8604 2.400
20.8769 2.433
20.8935 2.148
20.9100 2.137
20.9265 2.323
20.9431 2.219
20.9596 2.416
20.9762 1.962
20.9927 2.296
21.0093 2.285
21.0258 2.268
21.0424 2.247
21.0589 2.356
21.0755 2.153
21.0920 2.071
21.1085 2.258
21.1251 2.219
21.1416 2.219
21.1582 2.252
21.1747 2.389
21.1913 2.241
21.2078 2.263
21.2244 2.236
21.2409 2.230
21.2575 2.115
21.2740 2.378
21.2905 2.542
21.3071 2.795
21.3236 2.740
21.3402 2.855
21.3567 2.564
21.3733 2.301
21.3898 2.570
21.4064 2.493
21.4229 2.356
21.4394 2.258
21.4560 2.219
21.4725 2.247
21.4891 2.247
21.5056 2.422
21.5222 2.164
21.5387 2.444
21.5553 2.121
21.5718 2.088
21.5884 2.011
21.6049 2.099
21.6214 2.175
21.6380 2.356
21.6545 1.929
21.6711 2.104
21.6876 2.060
21.7042 2.279
21.7207 2.351
21.7373 2.055
21.7538 2.290
21.7704 2.126
21.7869 2.148
21.8034 2.241
21.8200 2.241
21.8365 2.323
21.8531 2.367
21.8696 1.995
21.8862 2.296
21.9027 2.132
21.9193 1.973
21.9358 2.301
21.9524 2.082
21.9689 2.290
21.9854 2.049
22.0020 2.066
22.0185 2.055
22.0351 2.214
22.0516 2.312
22.0682 2.110
22.0847 2.110
22.1013 2.088
22.1178 2.082
22.1344 2.011
22.1509 2.088
22.1674 2.104
22.1840 2.016
22.2005 2.011
22.2171 2.153
22.2336 2.121
22.2502 2.132
22.2667 2.000
22.2833 1.934
22.2998 2.044
22.3164 2.000
22.3329 2.290
22.3494 2.164
22.3660 2.033
22.3825 2.000
22.3991 2.099
22.4156 2.181
22.4322 2.033
22.4487 1.836
22.4653 1.973
22.4818 1.951
22.4984 2.060
22.5149 1.907
22.5314 1.962
22.5480 2.060
22.5645 2.022
22.5811 2.186
22.5976 2.011
22.6142 1.940
22.6307 1.973
22.6473 1.879
22.6638 2.071
22.6804 2.038
22.6969 2.099
22.7134 2.055
22.7300 1.989
22.7465 2.071
22.7631 1.868
22.7796 2.016
22.7962 2.066
22.8127 1.742
22.8293 1.984
22.8458 2.033
22.8624 1.748
22.8789 2.022
22.8954 1.934
22.9120 1.874
22.9285 2.049
22.9451 1.973
22.9616 2.011
22.9782 2.285
22.9947 2.000
23.0113 2.104
23.0278 2.121
23.0444 2.000
23.0609 2.099
23.0774 1.879
23.0940 2.011
23.1105 2.022
23.1271 1.715
23.1436 1.858
23.1602 1.923
23.1767 1.962
23.1933 1.879
23.2098 1.858
23.2264 2.022
23.2429 1.978
23.2594 1.978
23.2760 2.110
23.2925 2.011
23.3091 2.011
23.3256 2.016
23.3422 1.836
23.3587 1.792
23.3753 2.126
23.3918 1.923
23.4084 1.830
23.4249 1.885
23.4414 2.132
23.4580 2.022
23.4745 1.836
23.4911 1.753
23.5076 1.901
23.5242 1.967
23.5407 1.945
23.5573 1.732
23.5738 1.934
23.5904 2.011
23.6069 1.940
23.6234 1.808
23.6400 1.814
23.6565 1.868
23.6731 1.929
23.6896 1.945
23.7062 1.907
23.7227 2.055
23.7393 2.115
23.7558 2.066
23.7724 1.863
23.7889 1.973
23.8054 2.038
23.8220 1.995
23.8385 1.896
23.8551 2.225
23.8716 2.126
23.8882 1.934
23.9047 2.301
23.9213 1.929
23.9378 1.956
23.9544 2.164
23.9709 1.907
23.9874 2.016
24.0040 2.219
24.0205 2.066
24.0371 2.181
24.0536 1.951
24.0702 2.225
24.0867 2.175
24.1033 2.071
24.1198 2.247
24.1364 2.290
24.1529 2.203
24.1694 2.219
24.1860 2.301
24.2025 2.455
24.2191 2.367
24.2356 2.312
24.2522 2.258
24.2687 2.389
24.2853 2.592
24.3018 2.422
24.3183 2.422
24.3349 2.477
24.3514 2.510
24.3680 2.455
24.3845 2.433
24.4011 2.767
24.4176 2.641
24.4342 2.460
24.4507 2.367
24.4673 2.471
24.4838 2.400
24.5003 2.564
24.5169 2.740
24.5334 2.416
24.5500 2.707
24.5665 2.466
24.5831 2.674
24.5996 2.586
24.6162 2.712
24.6327 2.844
24.6493 2.597
24.6658 2.586
24.6823 2.625
24.6989 2.729
24.7154 2.707
24.7320 2.827
24.7485 2.762
24.7651 2.592
24.7816 2.729
24.7982 2.948
24.8147 2.860
24.8313 2.822
24.8478 2.789
24.8643 2.707
24.8809 2.668
24.8974 2.641
24.9140 2.636
24.9305 2.800
24.9471 2.674
24.9636 2.734
24.9802 2.745
24.9967 2.762
25.0133 2.668
25.0298 2.679
25.0463 2.795
25.0629 2.833
25.0794 2.964
25.0960 3.123
25.1125 2.893
25.1291 3.255
25.1456 2.740
25.1622 3.156
25.1787 3.134
25.1953 3.359
25.2118 3.529
25.2283 3.764
25.2449 4.247
25.2614 4.263
25.2780 4.844
25.2945 5.151
25.3111 5.918
25.3276 6.734
25.3442 7.863
25.3607 9.414
25.3773 11.189
25.3938 13.721
25.4103 17.118
25.4269 22.038
25.4434 25.984
25.4600 32.619
25.4765 35.699
25.4931 37.633
25.5096 34.608
25.5262 31.452
25.5427 26.570
25.5593 22.773
25.5758 17.962
25.5923 13.260
25.6089 10.416
25.6254 7.699
25.6420 6.137
25.6585 4.893
25.6751 4.630
25.6916 3.627
25.7082 3.693
25.7247 3.299
25.7413 3.332
25.7578 2.942
25.7743 2.789
25.7909 2.652
25.8074 2.636
25.8240 2.871
25.8405 2.784
25.8571 2.740
25.8736 2.521
25.8902 2.614
25.9067 2.389
25.9233 2.356
25.9398 2.488
25.9563 2.553
25.9729 2.433
25.9894 2.203
26.0060 2.395
26.0225 2.422
26.0391 2.362
26.0556 2.230
26.0722 2.400
26.0887 2.395
26.1053 2.290
26.1218 2.411
26.1383 2.268
26.1549 2.449
26.1714 2.351
26.1880 2.077
26.2045 2.373
26.2211 2.225
26.2376 2.192
26.2542 2.192
26.2707 2.175
26.2873 2.192
26.3038 2.170
26.3203 2.027
26.3369 2.230
26.3534 2.137
26.3700 2.071
26.3865 2.230
26.4031 2.093
26.4196 2.219
26.4362 2.170
26.4527 2.088
26.4693 2.044
26.4858 2.077
26.5023 2.071
26.5189 2.104
26.5354 2.329
26.5520 2.471
26.5685 1.984
26.5851 1.923
26.6016 2.208
26.6182 2.159
26.6347 2.071
26.6513 2.164
26.6678 2.159
26.6843 2.049
26.7009 2.066
26.7174 2.159
26.7340 2.181
26.7505 2.099
26.7671 1.995
26.7836 2.137
26.8002 1.781
26.8167 2.022
26.8333 1.836
26.8498 2.060
26.8663 2.110
26.8829 1.912
26.8994 2.060
26.9160 1.863
26.9325 2.000
26.9491 1.929
26.9656 2.230
26.9822 1.907
26.9987 2.175
27.0152 2.038
27.0318 1.907
27.0483 1.847
27.0649 1.748
27.0814 1.792
27.0980 1.962
27.1145 2.016
27.1311 1.929
27.1476 1.951
27.1642 1.885
27.1807 1.918
27.1972 1.923
27.2138 1.858
27.2303 1.836
27.2469 1.775
27.2634 1.929
27.2800 2.044
27.2965 2.153
27.3131 1.721
27.3296 1.901
27.3462 1.940
27.3627 1.863
27.3792 1.896
27.3958 1.792
27.4123 1.868
27.4289 1.858
27.4454 1.819
27.4620 1.858
27.4785 1.715
27.4951 1.890
27.5116 1.797
27.5282 1.825
27.5447 1.879
27.5612 1.890
27.5778 1.879
27.5943 1.742
27.6109 1.627
27.6274 1.786
27.6440 1.649
27.6605 1.792
27.6771 1.852
27.6936 1.704
27.7102 1.786
27.7267 1.529
27.7432 1.775
27.7598 2.022
27.7763 1.934
27.7929 1.595
27.8094 1.671
27.8260 1.797
27.8425 1.699
27.8591 1.792
27.8756 1.644
27.8922 1.940
27.9087 1.715
27.9252 1.748
27.9418 1.748
27.9583 1.638
27.9749 1.682
27.9914 1.808
28.0080 1.775
28.0245 1.721
28.0411 1.671
28.0576 1.868
28.0742 1.797
28.0907 1.874
28.1072 1.622
28.1238 1.737
28.1403 1.819
28.1569 1.748
28.1734 1.649
28.1900 1.666
28.2065 1.507
28.2231 1.573
28.2396 1.781
28.2562 1.759
28.2727 1.655
28.2892 1.622
28.3058 1.726
28.3223 1.627
28.3389 1.573
28.3554 1.474
28.3720 1.940
28.3885 1.578
28.4051 1.523
28.4216 1.627
28.4382 1.496
28.4547 1.644
28.4712 1.523
28.4878 1.523
28.5043 1.666
28.5209 1.633
28.5374 1.518
28.5540 1.699
28.5705 1.611
28.5871 1.562
28.6036 1.578
28.6202 1.479
28.6367 1.677
28.6532 1.534
28.6698 1.507
28.6863 1.627
28.7029 1.578
28.7194 1.611
28.7360 1.627
28.7525 1.441
28.7691 1.425
28.7856 1.616
28.8022 1.430
28.8187 1.364
28.8352 1.666
28.8518 1.616
28.8683 1.359
28.8849 1.523
28.9014 1.359
28.9180 1.545
28.9345 1.666
28.9511 1.463
28.9676 1.638
28.9842 1.677
29.0007 1.556
29.0172 1.616
29.0338 1.381
29.0503 1.490
29.0669 1.381
29.0834 1.353
29.1000 1.458
29.1165 1.452
29.1331 1.501
29.1496 1.353
29.1662 1.392
29.1827 1.523
29.1992 1.436
29.2158 1.540
29.2323 1.403
29.2489 1.342
29.2654 1.490
29.2820 1.288
29.2985 1.238
29.3151 1.430
29.3316 1.370
29.3482 1.496
29.3647 1.419
29.3812 1.364
29.3978 1.342
29.4143 1.419
29.4309 1.227
29.4474 1.315
29.4640 1.353
29.4805 1.326
29.4971 1.403
29.5136 1.370
29.5302 1.485
29.5467 1.364
29.5632 1.534
29.5798 1.425
29.5963 1.288
29.6129 1.375
29.6294 1.425
29.6460 1.403
29.6625 1.304
29.6791 1.436
29.6956 1.332
29.7121 1.529
29.7287 1.485
29.7452 1.348
29.7618 1.414
29.7783 1.441
29.7949 1.249
29.8114 1.282
29.8280 1.321
29.8445 1.381
29.8611 1.321
29.8776 1.348
29.8941 1.430
29.9107 1.288
29.9272 1.332
29.9438 1.392
29.9603 1.337
29.9769 1.244
29.9934 1.430
30.0100 1.332
30.0265 1.359
30.0431 1.277
30.0596 1.238
30.0761 1.403
30.0927 1.321
30.1092 1.430
30.1258 1.260
30.1423 1.342
30.1589 1.342
30.1754 1.474
30.1920 1.249
30.2085 1.490
30.2251 1.310
30.2416 1.375
30.2581 1.200
30.2747 1.436
30.2912 1.501
30.3078 1.249
30.3243 1.425
30.3409 1.321
30.3574 1.397
30.3740 1.474
30.3905 1.271
30.4071 1.348
30.4236 1.238
30.4401 1.304
30.4567 1.195
30.4732 1.353
30.4898 1.249
30.5063 1.101
30.5229 1.370
30.5394 1.321
30.5560 1.364
30.5725 1.266
30.5891 1.255
30.6056 1.140
30.6221 1.244
30.6387 1.244
30.6552 1.425
30.6718 1.189
30.6883 1.458
30.7049 1.156
30.7214 1.140
30.7380 1.299
30.7545 1.173
30.7711 1.414
30.7876 1.293
30.8041 1.227
30.8207 1.282
30.8372 1.156
30.8538 1.222
30.8703 1.200
30.8869 1.364
30.9034 1.288
30.9200 1.200
30.9365 1.370
30.9531 1.140
30.9696 1.216
30.9861 1.068
31.0027 1.326
31.0192 1.260
31.0358 1.211
31.0523 1.178
31.0689 1.107
31.0854 1.288
31.1020 1.211
31.1185 1.173
31.1351 1.101
31.1516 1.233
31.1681 1.162
31.1847 1.096
31.2012 1.178
31.2178 1.249
31.2343 1.145
31.2509 1.227
31.2674 1.332
31.2840 1.145
31.3005 1.112
31.3171 1.288
31.3336 1.195
31.3501 1.156
31.3667 1.337
31.3832 1.162
31.3998 1.255
31.4163 1.058
31.4329 1.332
31.4494 1.189
31.4660 1.463
31.4825 1.249
31.4991 1.255
31.5156 1.129
31.5321 1.233
31.5487 1.282
31.5652 1.134
31.5818 1.178
31.5983 1.030
31.6149 1.211
31.6314 1.112
31.6480 1.112
31.6645 1.074
31.6811 1.134
31.6976 1.211
31.7141 1.145
31.7307 1.052
31.7472 1.036
31.7638 1.222
31.7803 1.036
31.7969 1.222
31.8134 1.085
31.8300 1.014
31.8465 1.145
31.8631 1.222
31.8796 1.167
31.8961 1.134
31.9127 1.145
31.9292 1.178
31.9458 1.173
31.9623 1.189
31.9789 1.156
31.9954 1.008
32.0120 0.942
32.0285 1.140
32.0451 1.227
32.0616 1.134
32.0781 1.233
32.0947 1.052
32.1112 1.140
32.1278 0.926
32.1443 1.118
32.1609 1.167
32.1774 1.074
32.1940 1.096
32.2105 1.145
32.2271 1.156
32.2436 1.058
32.2601 1.112
32.2767 1.074
32.2932 1.030
32.3098 1.118
32.3263 1.079
32.3429 1.052
32.3594 1.189
32.3760 1.096
32.3925 1.189
32.4091 1.211
32.4256 1.047
32.4421 1.167
32.4587 1.101
32.4752 1.129
32.4918 1.140
32.5083 1.090
32.5249 1.003
32.5414 1.184
32.5580 1.068
32.5745 1.129
32.5910 1.227
32.6076 1.025
32.6241 1.052
32.6407 0.997
32.6572 1.063
32.6738 1.074
32.6903 1.112
32.7069 1.145
32.7234 1.074
32.7400 1.167
32.7565 1.058
32.7730 1.074
32.7896 1.052
32.8061 1.079
32.8227 1.227
32.8392 1.123
32.8558 1.063
32.8723 1.200
32.8889 1.173
32.9054 1.085
32.9220 1.112
32.9385 1.041
32.9550 1.008
32.9716 1.167
32.9881 1.151
33.0047 1.052
33.0212 1.079
33.0378 1.140
33.0543 0.997
33.0709 1.074
33.0874 0.981
33.1040 1.156
33.1205 1.178
33.1370 0.986
33.1536 0.964
33.1701 0.942
33.1867 1.079
33.2032 1.134
33.2198 0.986
33.2363 1.123
33.2529 1.030
33.2694 1.123
33.2860 1.140
33.3025 1.178
33.3190 1.036
33.3356 1.107
33.3521 1.178
33.3687 1.008
33.3852 0.975
33.4018 1.090
33.4183 1.052
33.4349 1.107
33.4514 1.096
33.4680 0.997
33.4845 1.140
33.5010 0.992
33.5176 1.079
33.5341 1.227
33.5507 1.063
33.5672 1.222
33.5838 1.107
33.6003 1.123
33.6169 1.074
33.6334 1.151
33.6500 0.992
33.6665 1.074
33.6830 0.975
33.6996 1.090
33.7161 1.211
33.7327 1.173
33.7492 1.249
33.7658 1.085
33.7823 1.277
33.7989 1.233
33.8154 1.233
33.8320 1.337
33.8485 1.271
33.8650 1.458
33.8816 1.326
33.8981 1.364
33.9147 1.211
33.9312 1.397
33.9478 1.332
33.9643 1.085
33.9809 1.266
33.9974 1.271
34.0140 1.337
34.0305 1.266
34.0470 1.452
34.0636 1.205
34.0801 1.458
34.0967 1.315
34.1132 1.342
34.1298 1.299
34.1463 1.277
34.1629 1.468
34.1794 1.277
34.1960 1.326
34.2125 1.173
34.2290 1.178
34.2456 1.381
34.2621 1.282
34.2787 1.452
34.2952 1.326
34.3118 1.271
34.3283 1.189
34.3449 1.458
34.3614 1.529
34.3780 1.216
34.3945 1.551
34.4110 1.386
34.4276 1.419
34.4441 1.655
34.4607 1.611
34.4772 1.638
34.4938 1.704
34.5103 1.852
34.5269 1.567
34.5434 1.638
34.5600 1.858
34.5765 1.890
34.5930 1.863
34.6096 1.901
34.6261 2.181
34.6427 2.334
34.6592 2.438
34.6758 2.389
34.6923 2.800
34.7089 3.151
34.7254 3.479
34.7420 3.951
34.7585 4.258
34.7750 4.542
34.7916 5.353
34.8081 6.093
34.8247 6.833
34.8412 7.764
34.8578 9.726
34.8743 11.112
34.8909 12.800
34.9074 16.241
34.9240 19.830
34.9405 24.553
34.9570 30.948
34.9736 37.989
34.9901 43.912
35.0067 48.833
35.0232 49.310
35.0398 46.312
35.0563 39.973
35.0729 35.600
35.0894 31.600
35.1060 28.438
35.1225 23.677
35.1390 18.997
35.1556 13.622
35.1721 10.011
35.1887 6.888
35.2052 5.353
35.2218 4.411
35.2383 3.879
35.2549 3.315
35.2714 2.997
35.2879 2.674
35.3045 2.312
35.3210 2.367
35.3376 2.104
35.3541 2.022
35.3707 1.868
35.3872 1.863
35.4038 1.797
35.4203 1.890
35.4369 1.595
35.4534 1.551
35.4699 1.529
35.4865 1.458
35.5030 1.353
35.5196 1.441
35.5361 1.414
35.5527 1.348
35.5692 1.392
35.5858 1.529
35.6023 1.277
35.6189 1.244
35.6354 1.375
35.6519 1.419
35.6685 1.321
35.6850 1.282
35.7016 1.277
35.7181 1.359
35.7347 1.195
35.7512 1.244
35.7678 1.271
35.7843 1.178
35.8009 1.260
35.8174 1.244
35.8339 1.151
35.8505 1.271
35.8670 1.222
35.8836 1.195
35.9001 1.140
35.9167 1.063
35.9332 1.233
35.9498 1.074
35.9663 1.211
35.9829 1.085
35.9994 1.189
36.0159 1.233
36.0325 1.145
36.0490 1.178
36.0656 1.003
36.0821 1.129
36.0987 1.118
36.1152 1.085
36.1318 1.151
36.1483 1.107
36.1649 1.041
36.1814 1.216
36.1979 1.074
36.2145 1.090
36.2310 1.052
36.2476 1.118
36.2641 1.047
36.2807 1.123
36.2972 1.074
36.3138 1.123
36.3303 1.014
36.3469 1.063
36.3634 1.145
36.3799 1.162
36.3965 1.052
36.4130 1.244
36.4296 1.162
36.4461 1.244
36.4627 1.079
36.4792 1.156
36.4958 1.211
36.5123 1.238
36.5289 1.101
36.5454 0.964
36.5619 1.085
36.5785 1.118
36.5950 1.200
36.6116 1.189
36.6281 1.107
36.6447 1.255
36.6612 1.101
36.6778 1.178
36.6943 1.145
36.7109 1.063
36.7274 1.129
36.7439 1.112
36.7605 1.200
36.7770 1.036
36.7936 1.003
36.8101 1.096
36.8267 1.112
36.8432 1.140
36.8598 1.151
36.8763 1.107
36.8929 1.140
36.9094 1.156
36.9259 1.216
36.9425 1.123
36.9590 1.381
36.9756 1.244
36.9921 1.227
37.0087 1.211
37.0252 1.156
37.0418 1.364
37.0583 1.184
37.0749 1.074
37.0914 1.112
37.1079 1.244
37.1245 1.211
37.1410 1.123
37.1576 1.271
37.1741 1.216
37.1907 1.271
37.2072 1.293
37.2238 1.299
37.2403 1.430
37.2569 1.501
37.2734 1.463
37.2899 1.540
37.3065 1.786
37.3230 1.890
37.3396 1.797
37.3561 2.093
37.3727 2.142
37.3892 2.340
37.4058 2.504
37.4223 3.003
37.4389 3.019
37.4554 3.501
37.4719 4.137
37.4885 4.844
37.5050 5.238
37.5216 6.882
37.5381 7.726
37.5547 9.238
37.5712 11.118
37.5878 13.929
37.6043 16.422
37.6209 18.915
37.6374 19.699
37.6539 19.375
37.6705 17.299
37.6870 15.008
37.7036 13.403
37.7201 12.658
37.7367 11.633
37.7532 10.159
37.7698 8.230
37.7863 6.093
37.8029 4.405
37.8194 3.584
37.8359 2.767
37.8525 2.192
37.8690 1.874
37.8856 1.764
37.9021 1.611
37.9187 1.463
37.9352 1.518
37.9518 1.518
37.9683 1.392
37.9848 1.195
38.0014 1.184
38.0179 1.359
38.0345 1.288
38.0510 1.068
38.0676 1.227
38.0841 1.145
38.1007 1.123
38.1172 1.129
38.1338 1.200
38.1503 1.200
38.1668 1.244
38.1834 1.134
38.1999 1.085
38.2165 1.047
38.2330 1.074
38.2496 0.964
38.2661 0.948
38.2827 1.238
38.2992 1.107
38.3158 0.921
38.3323 1.079
38.3488 1.058
38.3654 1.118
38.3819 1.260
38.3985 1.074
38.4150 1.090
38.4316 1.156
38.4481 0.992
38.4647 0.986
38.4812 1.019
38.4978 0.959
38.5143 0.997
38.5308 0.948
38.5474 0.926
38.5639 1.112
38.5805 0.904
38.5970 0.953
38.6136 1.030
38.6301 1.003
38.6467 1.129
38.6632 0.959
38.6798 0.937
38.6963 1.041
38.7128 0.975
38.7294 1.063
38.7459 1.036
38.7625 0.964
38.7790 1.063
38.7956 1.090
38.8121 1.058
38.8287 1.173
38.8452 1.101
38.8618 1.249
38.8783 1.025
38.8948 0.893
38.9114 1.030
38.9279 0.981
38.9445 0.981
38.9610 0.932
38.9776 1.058
38.9941 0.855
39.0107 0.992
39.0272 0.986
39.0438 0.942
39.0603 1.019
39.0768 0.767
39.0934 0.904
39.1099 0.992
39.1265 1.036
39.1430 0.789
39.1596 0.904
39.1761 0.888
39.1927 0.992
39.2092 0.975
39.2258 0.795
39.2423 0.816
39.2588 0.866
39.2754 0.915
39.2919 0.915
39.3085 0.899
39.3250 0.849
39.3416 0.959
39.3581 0.838
39.3747 1.030
39.3912 0.997
39.4078 0.833
39.4243 1.014
39.4408 0.915
39.4574 0.860
39.4739 0.756
39.4905 0.882
39.5070 0.877
39.5236 1.085
39.5401 0.855
39.5567 0.921
39.5732 0.767
39.5898 0.860
39.6063 0.871
39.6228 0.811
39.6394 0.822
39.6559 0.953
39.6725 0.964
39.6890 0.904
39.7056 0.964
39.7221 0.877
39.7387 0.992
39.7552 0.915
39.7718 0.849
39.7883 0.844
39.8048 0.877
39.8214 0.877
39.8379 0.926
39.8545 0.893
39.8710 0.795
39.8876 0.860
39.9041 0.827
39.9207 0.833
39.9372 0.844
39.9538 1.014
39.9703 0.805
39.9868 0.981
40.0034 0.904
40.0199 0.893
40.0365 0.849
40.0530 0.926
40.0696 0.838
40.0861 0.707
40.1027 0.899
40.1192 0.795
40.1358 0.860
40.1523 0.910
40.1688 0.773
40.1854 0.844
40.2019 0.740
40.2185 0.849
40.2350 0.981
40.2516 0.833
40.2681 0.751
40.2847 0.926
40.3012 0.838
40.3178 0.844
40.3343 0.882
40.3508 0.882
40.3674 0.855
40.3839 0.942
40.4005 0.674
40.4170 0.860
40.4336 0.773
40.4501 0.921
40.4667 0.932
40.4832 0.855
40.4998 0.888
40.5163 0.816
40.5328 0.866
40.5494 0.926
40.5659 0.915
40.5825 0.827
40.5990 0.800
40.6156 0.827
40.6321 0.789
40.6487 0.910
40.6652 0.811
40.6818 0.926
40.6983 0.915
40.7148 0.767
40.7314 0.871
40.7479 0.729
40.7645 0.899
40.7810 0.844
40.7976 0.773
40.8141 0.926
40.8307 0.795
40.8472 0.921
40.8637 0.784
40.8803 0.844
40.8968 0.926
40.9134 0.904
40.9299 0.877
40.9465 0.800
40.9630 0.822
40.9796 0.970
40.9961 0.855
41.0127 0.734
41.0292 0.855
41.0457 0.636
41.0623 0.932
41.0788 0.822
41.0954 0.888
41.1119 0.932
41.1285 0.795
41.1450 0.942
41.1616 0.773
41.1781 0.871
41.1947 0.921
41.2112 0.926
41.2277 0.838
41.2443 0.953
41.2608 1.041
41.2774 0.904
41.2939 0.849
41.3105 0.921
41.3270 0.866
41.3436 1.019
41.3601 0.915
41.3767 0.893
41.3932 1.058
41.4097 0.970
41.4263 1.090
41.4428 1.014
41.4594 0.953
41.4759 1.315
41.4925 1.189
41.5090 1.337
41.5256 1.364
41.5421 1.014
41.5587 1.211
41.5752 1.195
41.5917 1.162
41.6083 1.184
41.6248 1.052
41.6414 1.151
41.6579 1.041
41.6745 0.970
41.6910 1.036
41.7076 0.915
41.7241 1.014
41.7407 1.052
41.7572 1.014
41.7737 1.014
41.7903 0.937
41.8068 0.981
41.8234 1.118
41.8399 1.025
41.8565 1.047
41.8730 1.085
41.8896 1.036
41.9061 0.964
41.9227 0.964
41.9392 1.249
41.9557 1.074
41.9723 0.893
41.9888 1.030
42.0054 1.047
42.0219 1.068
42.0385 1.019
42.0550 0.986
42.0716 1.019
42.0881 1.025
42.1047 0.992
42.1212 1.063
42.1377 0.877
42.1543 0.937
42.1708 0.866
42.1874 1.030
42.2039 1.063
42.2205 1.036
42.2370 1.019
42.2536 0.942
42.2701 0.975
42.2867 1.068
42.3032 1.107
42.3197 1.096
42.3363 0.882
42.3528 1.068
42.3694 1.047
42.3859 1.145
42.4025 1.134
42.4190 1.085
42.4356 0.970
42.4521 1.008
42.4687 1.167
42.4852 1.173
42.5017 1.008
42.5183 1.129
42.5348 1.085
42.5514 1.255
42.5679 1.167
42.5845 1.222
42.6010 1.299
42.6176 1.321
42.6341 1.397
42.6507 1.419
42.6672 1.452
42.6837 1.173
42.7003 1.512
42.7168 1.622
42.7334 1.638
42.7499 1.901
42.7665 1.792
42.7830 1.868
42.7996 2.066
42.8161 2.093
42.8327 2.411
42.8492 2.603
42.8657 3.041
42.8823 3.408
42.8988 3.759
42.9154 4.252
42.9319 4.701
42.9485 5.386
42.9650 6.044
42.9816 7.145
42.9981 7.775
43.0147 9.145
43.0312 10.268
43.0477 12.340
43.0643 15.359
43.0808 17.984
43.0974 21.392
43.1139 27.392
43.1305 32.449
43.1470 38.877
43.1636 44.559
43.1801 48.241
43.1967 47.573
43.2132 44.318
43.2297 38.268
43.2463 32.055
43.2628 28.882
43.2794 28.049
43.2959 26.378
43.3125 24.329
43.3290 20.230
43.3456 15.195
43.3621 11.222
43.3787 7.726
43.3952 6.093
43.4117 4.805
43.4283 3.858
43.4448 3.468
43.4614 2.827
43.4779 2.416
43.4945 2.378
43.5110 2.247
43.5276 1.885
43.5441 1.742
43.5606 1.825
43.5772 1.425
43.5937 1.699
43.6103 1.742
43.6268 1.463
43.6434 1.304
43.6599 1.282
43.6765 1.375
43.6930 1.326
43.7096 1.414
43.7261 1.178
43.7426 1.167
43.7592 1.129
43.7757 1.195
43.7923 1.129
43.8088 1.211
43.8254 1.189
43.8419 1.189
43.8585 1.008
43.8750 1.178
43.8916 1.101
43.9081 0.893
43.9246 1.058
43.9412 1.167
43.9577 0.921
43.9743 1.008
43.9908 1.058
44.0074 0.964
44.0239 1.068
44.0405 0.849
44.0570 0.997
44.0736 0.948
44.0901 0.932
44.1066 0.921
44.1232 0.970
44.1397 0.805
44.1563 0.827
44.1728 0.910
44.1894 0.822
44.2059 0.871
44.2225 0.827
44.2390 1.096
44.2556 0.849
44.2721 0.921
44.2886 0.959
44.3052 0.718
44.3217 0.921
44.3383 0.811
44.3548 0.784
44.3714 0.888
44.3879 0.915
44.4045 0.893
44.4210 0.899
44.4376 0.997
44.4541 1.003
44.4706 0.805
44.4872 0.882
44.5037 0.893
44.5203 0.937
44.5368 0.882
44.5534 0.866
44.5699 0.915
44.5865 0.833
44.6030 0.937
44.6196 0.997
44.6361 0.932
44.6526 0.838
44.6692 0.866
44.6857 0.838
44.7023 0.871
44.7188 0.745
44.7354 0.751
44.7519 0.816
44.7685 0.811
44.7850 0.855
44.8016 0.822
44.8181 0.866
44.8346 0.800
44.8512 0.910
44.8677 0.844
44.8843 0.811
44.9008 0.778
44.9174 0.860
44.9339 0.800
44.9505 0.899
44.9670 0.729
44.9836 0.915
45.0001 0.844
45.0166 0.816
45.0332 0.860
45.0497 0.899
45.0663 0.849
45.0828 0.893
45.0994 0.800
45.1159 0.877
45.1325 0.712
45.1490 0.789
45.1656 0.860
45.1821 0.767
45.1986 0.805
45.2152 0.789
45.2317 0.718
45.2483 0.866
45.2648 0.811
45.2814 0.860
45.2979 0.811
45.3145 0.800
45.3310 0.729
45.3476 0.740
45.3641 0.915
45.3806 0.762
45.3972 0.718
45.4137 0.685
45.4303 0.679
45.4468 0.778
45.4634 0.849
45.4799 0.805
45.4965 0.778
45.5130 0.915
45.5296 0.762
45.5461 0.948
45.5626 0.827
45.5792 0.734
45.5957 0.915
45.6123 0.762
45.6288 0.762
45.6454 0.734
45.6619 0.871
45.6785 0.910
45.6950 0.844
45.7116 0.838
45.7281 0.827
45.7446 0.827
45.7612 0.849
45.7777 0.811
45.7943 0.860
45.8108 0.877
45.8274 0.877
45.8439 0.866
45.8605 0.849
45.8770 0.926
45.8936 0.893
45.9101 1.058
45.9266 1.079
45.9432 1.205
45.9597 1.019
45.9763 1.310
45.9928 1.255
46.0094 1.299
46.0259 1.353
46.0425 1.167
46.0590 1.085
46.0756 1.052
46.0921 1.008
46.1086 1.118
46.1252 0.986
46.1417 1.068
46.1583 0.948
46.1748 0.904
46.1914 0.756
46.2079 0.773
46.2245 0.795
46.2410 0.668
46.2575 0.877
46.2741 0.778
46.2906 0.756
46.3072 0.756
46.3237 0.701
46.3403 0.751
46.3568 0.805
46.3734 0.668
46.3899 0.789
46.4065 0.663
46.4230 0.756
46.4395 0.789
46.4561 0.789
46.4726 0.658
46.4892 0.690
46.5057 0.718
46.5223 0.679
46.5388 0.751
46.5554 0.641
46.5719 0.866
46.5885 0.767
46.6050 0.729
46.6215 0.800
46.6381 0.701
46.6546 0.707
46.6712 0.816
46.6877 0.647
46.7043 0.751
46.7208 0.674
46.7374 0.740
46.7539 0.668
46.7705 0.740
46.7870 0.789
46.8035 0.723
46.8201 0.756
46.8366 0.778
46.8532 0.773
46.8697 0.745
46.8863 0.822
46.9028 0.751
46.9194 0.636
46.9359 0.915
46.9525 0.773
46.9690 0.838
46.9855 0.762
47.0021 0.641
47.0186 0.718
47.0352 0.751
47.0517 0.712
47.0683 0.658
47.0848 0.734
47.1014 0.734
47.1179 0.674
47.1345 0.603
47.1510 0.871
47.1675 0.652
47.1841 0.795
47.2006 0.877
47.2172 0.762
47.2337 0.762
47.2503 0.630
47.2668 0.636
47.2834 0.696
47.2999 0.734
47.3165 0.696
47.3330 0.679
47.3495 0.630
47.3661 0.690
47.3826 0.647
47.3992 0.668
47.4157 0.647
47.4323 0.778
47.4488 0.729
47.4654 0.608
47.4819 0.636
47.4985 0.795
47.5150 0.701
47.5315 0.608
47.5481 0.636
47.5646 0.570
47.5812 0.723
47.5977 0.696
47.6143 0.658
47.6308 0.647
47.6474 0.712
47.6639 0.564
47.6805 0.663
47.6970 0.597
47.7135 0.685
47.7301 0.663
47.7466 0.636
47.7632 0.625
47.7797 0.712
47.7963 0.734
47.8128 0.636
47.8294 0.816
47.8459 0.515
47.8625 0.663
47.8790 0.696
47.8955 0.619
47.9121 0.756
47.9286 0.636
47.9452 0.663
47.9617 0.625
47.9783 0.614
47.9948 0.592
48.0114 0.581
48.0279 0.630
48.0445 0.679
48.0610 0.707
48.0775 0.581
48.0941 0.762
48.1106 0.729
48.1272 0.685
48.1437 0.625
48.1603 0.630
48.1768 0.619
48.1934 0.647
48.2099 0.647
48.2265 0.685
48.2430 0.581
48.2595 0.679
48.2761 0.630
48.2926 0.658
48.3092 0.625
48.3257 0.636
48.3423 0.542
48.3588 0.614
48.3754 0.647
48.3919 0.658
48.4085 0.795
48.4250 0.734
48.4415 0.679
48.4581 0.630
48.4746 0.658
48.4912 0.690
48.5077 0.625
48.5243 0.679
48.5408 0.674
48.5574 0.597
48.5739 0.636
48.5905 0.696
48.6070 0.548
48.6235 0.581
48.6401 0.641
48.6566 0.625
48.6732 0.767
48.6897 0.581
48.7063 0.685
48.7228 0.636
48.7394 0.630
48.7559 0.679
48.7725 0.701
48.7890 0.614
48.8055 0.647
48.8221 0.570
48.8386 0.658
48.8552 0.608
48.8717 0.636
48.8883 0.455
48.9048 0.652
48.9214 0.614
48.9379 0.592
48.9545 0.674
48.9710 0.559
48.9875 0.570
49.0041 0.597
49.0206 0.674
49.0372 0.630
49.0537 0.647
49.0703 0.745
49.0868 0.668
49.1034 0.658
49.1199 0.608
49.1364 0.614
49.1530 0.701
49.1695 0.658
49.1861 0.679
49.2026 0.718
49.2192 0.575
49.2357 0.559
49.2523 0.679
49.2688 0.592
49.2854 0.636
49.3019 0.685
49.3184 0.608
49.3350 0.652
49.3515 0.521
49.3681 0.608
49.3846 0.658
49.4012 0.614
49.4177 0.685
49.4343 0.614
49.4508 0.636
49.4674 0.734
49.4839 0.696
49.5004 0.685
49.5170 0.575
49.5335 0.630
49.5501 0.647
49.5666 0.625
49.5832 0.597
49.5997 0.526
49.6163 0.745
49.6328 0.663
49.6494 0.696
49.6659 0.701
49.6824 0.564
49.6990 0.668
49.7155 0.559
49.7321 0.586
49.7486 0.663
49.7652 0.707
49.7817 0.668
49.7983 0.559
49.8148 0.778
49.8314 0.712
49.8479 0.636
49.8644 0.559
49.8810 0.701
49.8975 0.553
49.9141 0.619
49.9306 0.575
49.9472 0.630
49.9637 0.559
49.9803 0.729
49.9968 0.542
50.0134 0.559
50.0299 0.767
50.0464 0.652
50.0630 0.663
50.0795 0.532
50.0961 0.559
50.1126 0.701
50.1292 0.608
50.1457 0.663
50.1623 0.553
50.1788 0.630
50.1954 0.625
50.2119 0.564
50.2284 0.625
50.2450 0.636
50.2615 0.668
50.2781 0.707
50.2946 0.718
50.3112 0.762
50.3277 0.630
50.3443 0.608
50.3608 0.652
50.3774 0.586
50.3939 0.658
50.4104 0.729
50.4270 0.586
50.4435 0.658
50.4601 0.647
50.4766 0.800
50.4932 0.685
50.5097 0.712
50.5263 0.690
50.5428 0.668
50.5594 0.690
50.5759 0.548
50.5924 0.712
50.6090 0.641
50.6255 0.701
50.6421 0.652
50.6586 0.636
50.6752 0.625
50.6917 0.701
50.7083 0.707
50.7248 0.701
50.7414 0.795
50.7579 0.718
50.7744 0.581
50.7910 0.658
50.8075 0.679
50.8241 0.652
50.8406 0.784
50.8572 0.690
50.8737 0.679
50.8903 0.658
50.9068 0.641
50.9234 0.751
50.9399 0.658
50.9564 0.800
50.9730 0.685
50.9895 0.800
51.0061 0.674
51.0226 0.712
51.0392 0.586
51.0557 0.751
51.0723 0.701
51.0888 0.767
51.1054 0.740
51.1219 0.630
51.1384 0.636
51.1550 0.811
51.1715 0.816
51.1881 0.658
51.2046 0.630
51.2212 0.795
51.2377 0.849
51.2543 0.756
51.2708 0.712
51.2874 0.877
51.3039 0.800
51.3204 0.893
51.3370 0.833
51.3535 0.762
51.3701 0.795
51.3866 0.729
51.4032 0.729
51.4197 0.833
51.4363 0.701
51.4528 0.756
51.4694 0.740
51.4859 0.756
51.5024 0.751
51.5190 0.723
51.5355 0.729
51.5521 0.647
51.5686 0.707
51.5852 0.833
51.6017 0.658
51.6183 0.723
51.6348 0.734
51.6514 0.866
51.6679 0.740
51.6844 0.805
51.7010 0.745
51.7175 0.751
51.7341 0.745
51.7506 0.784
51.7672 0.877
51.7837 0.838
51.8003 0.855
51.8168 0.882
51.8333 0.997
51.8499 0.997
51.8664 0.986
51.8830 1.063
51.8995 1.145
51.9161 1.030
51.9326 1.353
51.9492 1.211
51.9657 1.364
51.9823 1.545
51.9988 1.501
52.0153 1.890
52.0319 1.868
52.0484 2.016
52.0650 2.334
52.0815 2.641
52.0981 2.893
52.1146 3.074
52.1312 3.321
52.1477 3.874
52.1643 4.586
52.1808 5.260
52.1973 6.219
52.2139 7.151
52.2304 8.362
52.2470 10.033
52.2635 11.726
52.2801 13.545
52.2966 15.951
52.3132 18.975
52.3297 20.071
52.3463 20.263
52.3628 19.249
52.3793 16.482
52.3959 13.474
52.4124 12.005
52.4290 10.953
52.4455 10.674
52.4621 11.156
52.4786 10.701
52.4952 10.066
52.5117 8.701
52.5283 7.003
52.5448 5.074
52.5613 3.808
52.5779 2.893
52.5944 2.230
52.6110 1.847
52.6275 1.852
52.6441 1.545
52.6606 1.299
52.6772 1.266
52.6937 1.337
52.7103 1.134
52.7268 1.074
52.7433 1.140
52.7599 1.041
52.7764 1.085
52.7930 0.926
52.8095 0.953
52.8261 0.964
52.8426 0.904
52.8592 0.849
52.8757 0.751
52.8923 0.855
52.9088 0.926
52.9253 0.838
52.9419 0.778
52.9584 0.838
52.9750 0.816
52.9915 0.696
53.0081 0.679
53.0246 0.712
53.0412 0.767
53.0577 0.789
53.0743 0.729
53.0908 0.805
53.1073 0.784
53.1239 0.740
53.1404 0.778
53.1570 0.712
53.1735 0.778
53.1901 0.630
53.2066 0.652
53.2232 0.723
53.2397 0.597
53.2563 0.767
53.2728 0.641
53.2893 0.630
53.3059 0.762
53.3224 0.718
53.3390 0.762
53.3555 0.614
53.3721 0.647
53.3886 0.751
53.4052 0.658
53.4217 0.663
53.4383 0.586
53.4548 0.668
53.4713 0.532
53.4879 0.608
53.5044 0.718
53.5210 0.685
53.5375 0.603
53.5541 0.614
53.5706 0.690
53.5872 0.625
53.6037 0.712
53.6203 0.619
53.6368 0.553
53.6533 0.718
53.6699 0.658
53.6864 0.553
53.7030 0.773
53.7195 0.707
53.7361 0.668
53.7526 0.668
53.7692 0.701
53.7857 0.641
53.8023 0.636
53.8188 0.723
53.8353 0.707
53.8519 0.663
53.8684 0.701
53.8850 0.608
53.9015 0.597
53.9181 0.586
53.9346 0.581
53.9512 0.696
53.9677 0.668
53.9843 0.663
54.0008 0.685
54.0173 0.575
54.0339 0.597
54.0504 0.625
54.0670 0.696
54.0835 0.625
54.1001 0.581
54.1166 0.652
54.1332 0.658
54.1497 0.597
54.1663 0.668
54.1828 0.696
54.1993 0.499
54.2159 0.712
54.2324 0.542
54.2490 0.570
54.2655 0.586
54.2821 0.668
54.2986 0.658
54.3152 0.636
54.3317 0.636
54.3483 0.619
54.3648 0.701
54.3813 0.592
54.3979 0.537
54.4144 0.685
54.4310 0.658
54.4475 0.603
54.4641 0.679
54.4806 0.745
54.4972 0.696
54.5137 0.647
54.5302 0.685
54.5468 0.542
54.5633 0.603
54.5799 0.679
54.5964 0.608
54.6130 0.499
54.6295 0.608
54.6461 0.658
54.6626 0.477
54.6792 0.630
54.6957 0.608
54.7122 0.597
54.7288 0.701
54.7453 0.564
54.7619 0.652
54.7784 0.674
54.7950 0.575
54.8115 0.762
54.8281 0.603
54.8446 0.521
54.8612 0.619
54.8777 0.625
54.8942 0.597
54.9108 0.603
54.9273 0.729
54.9439 0.553
54.9604 0.597
54.9770 0.619
54.9935 0.614
55.0101 0.603
55.0266 0.619
55.0432 0.592
55.0597 0.701
55.0762 0.707
55.0928 0.592
55.1093 0.723
55.1259 0.674
55.1424 0.636
55.1590 0.800
55.1755 0.614
55.1921 0.756
55.2086 0.800
55.2252 0.762
55.2417 0.685
55.2582 0.800
55.2748 0.685
55.2913 0.718
55.3079 0.679
55.3244 0.827
55.3410 0.696
55.3575 0.652
55.3741 0.745
55.3906 0.641
55.4072 0.647
55.4237 0.658
55.4402 0.652
55.4568 0.679
55.4733 0.663
55.4899 0.784
55.5064 0.816
55.5230 0.762
55.5395 0.647
55.5561 0.696
55.5726 0.805
55.5892 0.767
55.6057 0.625
55.6222 0.729
55.6388 0.767
55.6553 0.921
55.6719 0.833
55.6884 0.762
55.7050 0.690
55.7215 0.701
55.7381 0.729
55.7546 0.767
55.7712 0.795
55.7877 0.816
55.8042 0.718
55.8208 0.712
55.8373 0.805
55.8539 0.800
55.8704 0.723
55.8870 0.625
55.9035 0.767
55.9201 0.718
55.9366 0.767
55.9532 0.729
55.9697 0.734
55.9862 0.816
56.0028 0.767
56.0193 0.636
56.0359 0.795
56.0524 0.696
56.0690 0.773
56.0855 0.767
56.1021 0.690
56.1186 0.778
56.1352 0.773
56.1517 0.762
56.1682 0.685
56.1848 0.795
56.2013 0.871
56.2179 0.696
56.2344 0.778
56.2510 0.762
56.2675 0.778
56.2841 0.811
56.3006 0.849
56.3172 0.800
56.3337 0.805
56.3502 0.784
56.3668 0.734
56.3833 0.833
56.3999 0.756
56.4164 0.745
56.4330 0.871
56.4495 0.910
56.4661 1.074
56.4826 0.816
56.4992 0.948
56.5157 0.849
56.5322 0.844
56.5488 0.948
56.5653 0.871
56.5819 0.877
56.5984 0.899
56.6150 0.970
56.6315 1.036
56.6481 1.014
56.6646 0.964
56.6812 1.129
56.6977 1.156
56.7142 1.288
56.7308 1.299
56.7473 1.364
56.7639 1.364
56.7804 1.529
56.7970 1.545
56.8135 1.518
56.8301 1.693
56.8466 1.940
56.8632 1.962
56.8797 2.148
56.8962 2.542
56.9128 2.701
56.9293 2.778
56.9459 3.167
56.9624 3.507
56.9790 3.775
56.9955 4.510
57.0121 4.822
57.0286 5.277
57.0452 6.384
57.0617 6.915
57.0782 8.175
57.0948 9.184
57.1113 11.156
57.1279 13.156
57.1444 14.964
57.1610 17.890
57.1775 20.948
57.1941 24.718
57.2106 28.597
57.2272 33.951
57.2437 37.671
57.2602 38.038
57.2768 36.400
57.2933 31.830
57.3099 26.340
57.3264 22.066
57.3430 20.192
57.3595 19.101
57.3761 19.403
57.3926 19.863
57.4091 19.764
57.4257 19.195
57.4422 16.258
57.4588 13.353
57.4753 8.992
57.4919 7.063
57.5084 5.123
57.5250 4.236
57.5415 3.693
57.5581 2.866
57.5746 2.608
57.5911 2.225
57.6077 1.923
57.6242 1.868
57.6408 1.677
57.6573 1.699
57.6739 1.545
57.6904 1.496
57.7070 1.353
57.7235 1.233
57.7401 1.238
57.7566 1.140
57.7731 1.200
57.7897 1.227
57.8062 1.090
57.8228 1.129
57.8393 1.101
57.8559 0.948
57.8724 1.008
57.8890 0.932
57.9055 0.921
57.9221 0.921
57.9386 0.888
57.9551 0.844
57.9717 0.953
57.9882 1.041
58.0048 0.844
58.0213 0.871
58.0379 0.778
58.0544 0.740
58.0710 0.773
58.0875 0.871
58.1041 0.795
58.1206 0.740
58.1371 0.805
58.1537 0.811
58.1702 0.811
58.1868 0.816
58.2033 0.663
58.2199 0.756
58.2364 0.762
58.2530 0.888
58.2695 0.805
58.2861 0.767
58.3026 0.740
58.3191 0.756
58.3357 0.690
58.3522 0.712
58.3688 0.745
58.3853 0.784
58.4019 0.718
58.4184 0.712
58.4350 0.679
58.4515 0.762
58.4681 0.811
58.4846 0.685
58.5011 0.663
58.5177 0.734
58.5342 0.647
58.5508 0.685
58.5673 0.636
58.5839 0.647
58.6004 0.707
58.6170 0.658
58.6335 0.789
58.6501 0.630
58.6666 0.696
58.6831 0.740
58.6997 0.762
58.7162 0.668
58.7328 0.701
58.7493 0.773
58.7659 0.767
58.7824 0.729
58.7990 0.625
58.8155 0.652
58.8321 0.690
58.8486 0.641
58.8651 0.630
58.8817 0.805
58.8982 0.603
58.9148 0.745
58.9313 0.690
58.9479 0.619
58.9644 0.581
58.9810 0.690
58.9975 0.652
59.0141 0.723
59.0306 0.559
59.0471 0.756
59.0637 0.729
59.0802 0.636
59.0968 0.630
59.1133 0.674
59.1299 0.729
59.1464 0.630
59.1630 0.751
59.1795 0.712
59.1961 0.668
59.2126 0.773
59.2291 0.800
59.2457 0.729
59.2622 0.701
59.2788 0.745
59.2953 0.668
59.3119 0.953
59.3284 0.871
59.3450 0.751
59.3615 0.844
59.3781 0.992
59.3946 0.942
59.4111 1.233
59.4277 1.129
59.4442 1.392
59.4608 1.326
59.4773 1.364
59.4939 1.611
59.5104 1.518
59.5270 1.529
59.5435 1.167
59.5601 1.249
59.5766 1.079
59.5931 1.167
59.6097 1.052
59.6262 1.096
59.6428 0.948
59.6593 1.178
59.6759 1.068
59.6924 1.107
59.7090 0.789
59.7255 0.822
59.7421 0.751
59.7586 0.745
59.7751 0.745
59.7917 0.707
59.8082 0.674
59.8248 0.679
59.8413 0.641
59.8579 0.564
59.8744 0.685
59.8910 0.641
59.9075 0.668
59.9241 0.581
59.9406 0.663
59.9571 0.625
59.9737 0.625
59.9902 0.597
60.0068 0.696
60.0233 0.625
60.0399 0.668
60.0564 0.614
60.0730 0.597
60.0895 0.521
60.1060 0.603
60.1226 0.575
60.1391 0.658
60.1557 0.581
60.1722 0.718
60.1888 0.564
60.2053 0.668
60.2219 0.542
60.2384 0.603
60.2550 0.625
60.2715 0.696
60.2880 0.630
60.3046 0.553
60.3211 0.701
60.3377 0.668
60.3542 0.575
60.3708 0.696
60.3873 0.630
60.4039 0.603
60.4204 0.679
60.4370 0.559
60.4535 0.740
60.4700 0.707
60.4866 0.696
60.5031 0.701
60.5197 0.674
60.5362 0.647
60.5528 0.855
60.5693 0.658
60.5859 0.652
60.6024 0.855
60.6190 0.816
60.6355 0.942
60.6520 0.800
60.6686 0.866
60.6851 1.058
60.7017 0.937
60.7182 1.058
60.7348 1.085
60.7513 1.386
60.7679 1.227
60.7844 1.447
60.8010 1.655
60.8175 1.737
60.8340 1.912
60.8506 2.296
60.8671 2.345
60.8837 2.521
60.9002 2.510
60.9168 2.570
60.9333 2.844
60.9499 3.052
60.9664 3.058
60.9830 3.397
60.9995 3.764
61.0160 4.121
61.0326 4.060
61.0491 3.967
61.0657 3.534
61.0822 2.893
61.0988 2.493
61.1153 2.416
61.1319 2.148
61.1484 1.951
61.1650 1.984
61.1815 2.164
61.1980 1.923
61.2146 1.890
61.2311 1.836
61.2477 1.507
61.2642 1.370
61.2808 1.145
61.2973 0.915
61.3139 0.855
61.3304 0.822
61.3470 0.745
61.3635 0.751
61.3800 0.756
61.3966 0.630
61.4131 0.652
61.4297 0.630
61.4462 0.652
61.4628 0.734
61.4793 0.625
61.4959 0.663
61.5124 0.630
61.5290 0.564
61.5455 0.510
61.5620 0.658
61.5786 0.608
61.5951 0.597
61.6117 0.608
61.6282 0.641
61.6448 0.674
61.6613 0.679
61.6779 0.559
61.6944 0.614
61.7110 0.641
61.7275 0.756
61.7440 0.510
61.7606 0.553
61.7771 0.553
61.7937 0.559
61.8102 0.608
61.8268 0.449
61.8433 0.504
61.8599 0.597
61.8764 0.575
61.8930 0.581
61.9095 0.685
61.9260 0.663
61.9426 0.575
61.9591 0.488
61.9757 0.482
61.9922 0.526
62.0088 0.526
62.0253 0.438
62.0419 0.570
62.0584 0.521
62.0750 0.575
62.0915 0.630
62.1080 0.581
62.1246 0.597
62.1411 0.625
62.1577 0.603
62.1742 0.592
62.1908 0.570
62.2073 0.625
62.2239 0.559
62.2404 0.608
62.2570 0.608
62.2735 0.608
62.2900 0.532
62.3066 0.433
62.3231 0.559
62.3397 0.570
62.3562 0.488
62.3728 0.625
62.3893 0.482
62.4059 0.570
62.4224 0.570
62.4390 0.581
62.4555 0.542
62.4720 0.553
62.4886 0.597
62.5051 0.532
62.5217 0.482
62.5382 0.636
62.5548 0.548
62.5713 0.559
62.5879 0.427
62.6044 0.559
62.6210 0.625
62.6375 0.712
62.6540 0.647
62.6706 0.586
62.6871 0.471
62.7037 0.521
62.7202 0.553
62.7368 0.482
62.7533 0.581
62.7699 0.493
62.7864 0.510
62.8029 0.521
62.8195 0.647
62.8360 0.493
62.8526 0.625
62.8691 0.542
62.8857 0.668
62.9022 0.482
62.9188 0.449
62.9353 0.455
62.9519 0.581
62.9684 0.548
62.9849 0.477
63.0015 0.493
63.0180 0.455
63.0346 0.466
63.0511 0.493
63.0677 0.564
63.0842 0.433
63.1008 0.493
63.1173 0.553
63.1339 0.526
63.1504 0.647
63.1669 0.438
63.1835 0.438
63.2000 0.526
63.2166 0.537
63.2331 0.532
63.2497 0.433
63.2662 0.575
63.2828 0.603
63.2993 0.532
63.3159 0.537
63.3324 0.597
63.3489 0.504
63.3655 0.658
63.3820 0.542
63.3986 0.444
63.4151 0.586
63.4317 0.630
63.4482 0.608
63.4648 0.449
63.4813 0.510
63.4979 0.548
63.5144 0.625
63.5309 0.493
63.5475 0.553
63.5640 0.526
63.5806 0.504
63.5971 0.532
63.6137 0.466
63.6302 0.575
63.6468 0.575
63.6633 0.526
63.6799 0.521
63.6964 0.466
63.7129 0.575
63.7295 0.471
63.7460 0.559
63.7626 0.592
63.7791 0.575
63.7957 0.499
63.8122 0.548
63.8288 0.663
63.8453 0.625
63.8619 0.460
63.8784 0.619
63.8949 0.515
63.9115 0.460
63.9280 0.608
63.9446 0.559
63.9611 0.482
63.9777 0.641
63.9942 0.515
64.0108 0.537
64.0273 0.466
64.0439 0.581
64.0604 0.581
64.0769 0.515
64.0935 0.641
64.1100 0.564
64.1266 0.592
64.1431 0.564
64.1597 0.521
64.1762 0.581
64.1928 0.614
64.2093 0.510
64.2259 0.608
64.2424 0.603
64.2589 0.581
64.2755 0.521
64.2920 0.510
64.3086 0.575
64.3251 0.515
64.3417 0.548
64.3582 0.614
64.3748 0.537
64.3913 0.515
64.4079 0.608
64.4244 0.553
64.4409 0.526
64.4575 0.482
64.4740 0.488
64.4906 0.559
64.5071 0.521
64.5237 0.515
64.5402 0.449
64.5568 0.515
64.5733 0.521
64.5899 0.466
64.6064 0.553
64.6229 0.537
64.6395 0.625
64.6560 0.504
64.6726 0.542
64.6891 0.488
64.7057 0.510
64.7222 0.570
64.7388 0.707
64.7553 0.581
64.7719 0.526
64.7884 0.647
64.8049 0.603
64.8215 0.537
64.8380 0.559
64.8546 0.614
64.8711 0.526
64.8877 0.466
64.9042 0.592
64.9208 0.493
64.9373 0.471
64.9539 0.559
64.9704 0.586
64.9869 0.630
65.0035 0.553
65.0200 0.603
65.0366 0.559
65.0531 0.597
65.0697 0.641
65.0862 0.559
65.1028 0.625
65.1193 0.630
65.1359 0.581
65.1524 0.597
65.1689 0.597
65.1855 0.586
65.2020 0.515
65.2186 0.773
65.2351 0.597
65.2517 0.586
65.2682 0.630
65.2848 0.658
65.3013 0.597
65.3179 0.658
65.3344 0.625
65.3509 0.663
65.3675 0.767
65.3840 0.734
65.4006 0.542
65.4171 0.636
65.4337 0.553
65.4502 0.690
65.4668 0.493
65.4833 0.641
65.4999 0.641
65.5164 0.647
65.5329 0.668
65.5495 0.816
65.5660 0.647
65.5826 0.784
65.5991 0.729
65.6157 0.745
65.6322 0.784
65.6488 0.767
65.6653 0.789
65.6818 0.822
65.6984 0.795
65.7149 0.805
65.7315 0.816
65.7480 0.729
65.7646 0.953
65.7811 0.910
65.7977 1.112
65.8142 1.189
65.8308 1.244
65.8473 1.173
65.8638 1.386
65.8804 1.332
65.8969 1.403
65.9135 1.567
65.9300 1.545
65.9466 1.858
65.9631 2.055
65.9797 2.060
65.9962 2.268
66.0128 2.455
66.0293 3.063
66.0458 3.353
66.0624 3.732
66.0789 4.351
66.0955 5.008
66.1120 5.600
66.1286 6.521
66.1451 7.638
66.1617 8.367
66.1782 10.356
66.1948 11.945
66.2113 13.277
66.2278 13.912
66.2444 13.490
66.2609 12.893
66.2775 11.534
66.2940 8.805
66.3106 7.408
66.3271 6.882
66.3437 6.455
66.3602 6.559
66.3768 6.789
66.3933 6.685
66.4098 7.551
66.4264 7.326
66.4429 6.816
66.4595 5.605
66.4760 4.329
66.4926 3.605
66.5091 2.690
66.5257 2.088
66.5422 1.742
66.5588 1.792
66.5753 1.545
66.5918 1.573
66.6084 1.293
66.6249 1.123
66.6415 1.151
66.6580 1.025
66.6746 1.047
66.6911 0.910
66.7077 1.041
66.7242 0.893
66.7408 0.888
66.7573 0.970
66.7738 0.827
66.7904 1.047
66.8069 0.822
66.8235 0.833
66.8400 0.948
66.8566 0.860
66.8731 0.937
66.8897 0.734
66.9062 0.762
66.9228 0.860
66.9393 0.696
66.9558 0.888
66.9724 0.773
66.9889 0.723
67.0055 0.899
67.0220 0.795
67.0386 0.751
67.0551 0.871
67.0717 0.904
67.0882 0.745
67.1048 0.805
67.1213 0.822
67.1378 0.690
67.1544 0.838
67.1709 0.855
67.1875 0.921
67.2040 0.729
67.2206 0.833
67.2371 0.882
67.2537 0.932
67.2702 0.888
67.2868 0.822
67.3033 0.877
67.3198 0.844
67.3364 0.767
67.3529 0.811
67.3695 0.811
67.3860 1.074
67.4026 0.888
67.4191 0.970
67.4357 1.025
67.4522 0.997
67.4688 1.211
67.4853 1.436
67.5018 1.282
67.5184 1.332
67.5349 1.419
67.5515 1.534
67.5680 1.704
67.5846 1.808
67.6011 1.896
67.6177 2.088
67.6342 2.307
67.6508 2.729
67.6673 2.833
67.6838 3.216
67.7004 3.699
67.7169 4.005
67.7335 4.340
67.7500 5.293
67.7666 5.682
67.7831 6.751
67.7997 8.170
67.8162 9.205
67.8328 10.888
67.8493 12.570
67.8658 14.460
67.8824 16.816
67.8989 18.559
67.9155 19.523
67.9320 19.951
67.9486 18.696
67.9651 15.918
67.9817 13.874
67.9982 11.096
68.0148 9.540
68.0313 8.745
68.0478 9.058
68.0644 9.353
68.0809 10.663
68.0975 10.296
68.1140 10.992
68.1306 9.293
68.1471 8.608
68.1637 6.674
68.1802 5.452
68.1968 4.175
68.2133 3.238
68.2298 2.619
68.2464 2.263
68.2629 1.874
68.2795 1.605
68.2960 1.381
68.3126 1.386
68.3291 1.233
68.3457 1.233
68.3622 1.140
68.3787 1.079
68.3953 0.986
68.4118 0.827
68.4284 0.899
68.4449 0.959
68.4615 0.953
68.4780 0.855
68.4946 0.751
68.5111 0.778
68.5277 0.827
68.5442 0.723
68.5607 0.773
68.5773 0.696
68.5938 0.833
68.6104 0.778
68.6269 0.789
68.6435 0.641
68.6600 0.647
68.6766 0.696
68.6931 0.647
68.7097 0.751
68.7262 0.614
68.7427 0.679
68.7593 0.625
68.7758 0.658
68.7924 0.570
68.8089 0.668
68.8255 0.619
68.8420 0.751
68.8586 0.575
68.8751 0.608
68.8917 0.625
68.9082 0.729
68.9247 0.608
68.9413 0.570
68.9578 0.608
68.9744 0.482
68.9909 0.614
69.0075 0.636
69.0240 0.504
69.0406 0.455
69.0571 0.608
69.0737 0.586
69.0902 0.674
69.1067 0.537
69.1233 0.701
69.1398 0.636
69.1564 0.526
69.1729 0.625
69.1895 0.532
69.2060 0.526
69.2226 0.647
69.2391 0.575
69.2557 0.608
69.2722 0.548
69.2887 0.668
69.3053 0.553
69.3218 0.586
69.3384 0.575
69.3549 0.515
69.3715 0.581
69.3880 0.570
69.4046 0.526
69.4211 0.608
69.4377 0.570
69.4542 0.537
69.4707 0.553
69.4873 0.466
69.5038 0.521
69.5204 0.548
69.5369 0.564
69.5535 0.526
69.5700 0.526
69.5866 0.499
69.6031 0.586
69.6197 0.510
69.6362 0.521
69.6527 0.504
69.6693 0.619
69.6858 0.504
69.7024 0.581
69.7189 0.570
69.7355 0.510
69.7520 0.521
69.7686 0.570
69.7851 0.592
69.8017 0.542
69.8182 0.575
69.8347 0.581
69.8513 0.597
69.8678 0.532
69.8844 0.592
69.9009 0.586
69.9175 0.652
69.9340 0.586
69.9506 0.597
69.9671 0.603
69.9837 0.614
70.0002 0.690
