'Id: "" Comment: "" Operator: "Administrator" Anode: "Cu" Scantype: "Locked Coupled" TimePerStep: "182.5" X: "0" Y: "0" Z: "0" 
20.0000 2.258
20.0165 2.532
20.0331 2.373
20.0496 2.351
20.0662 2.345
20.0827 2.499
20.0993 2.351
20.1158 2.214
20.1324 2.488
20.1489 2.389
20.1655 2.460
20.1820 2.296
20.1985 2.603
20.2151 2.268
20.2316 2.345
20.2482 2.290
20.2647 2.274
20.2813 2.405
20.2978 2.685
20.3144 2.170
20.3309 2.170
20.3475 2.323
20.3640 2.477
20.3805 2.312
20.3971 2.340
20.4136 2.066
20.4302 2.329
20.4467 2.301
20.4633 2.268
20.4798 2.159
20.4964 2.296
20.5129 2.088
20.5295 2.214
20.5460 2.351
20.5625 2.323
20.5791 2.186
20.5956 2.005
20.6122 2.329
20.6287 2.099
20.6453 2.214
20.6618 2.466
20.6784 2.236
20.6949 2.186
20.7115 2.219
20.7280 2.033
20.7445 2.197
20.7611 2.345
20.7776 2.170
20.7942 2.126
20.8107 2.175
20.8273 2.241
20.8438 2.121
20.8604 2.296
20.8769 2.186
20.8935 2.192
20.9100 2.263
20.9265 2.258
20.9431 2.071
20.9596 2.318
20.9762 2.389
20.9927 2.099
21.0093 2.285
21.0258 2.279
21.0424 2.082
21.0589 2.132
21.0755 2.142
21.0920 2.203
21.1085 2.230
21.1251 2.318
21.1416 2.186
21.1582 1.951
21.1747 2.027
21.1913 1.978
21.2078 2.022
21.2244 2.258
21.2409 2.093
21.2575 2.164
21.2740 2.236
21.2905 2.241
21.3071 2.236
21.3236 2.153
21.3402 2.285
21.3567 2.016
21.3733 2.274
21.3898 2.219
21.4064 2.208
21.4229 2.077
21.4394 2.099
21.4560 2.082
21.4725 2.027
21.4891 1.984
21.5056 2.230
21.5222 2.241
21.5387 2.148
21.5553 2.214
21.5718 2.115
21.5884 2.175
21.6049 2.060
21.6214 1.940
21.6380 2.301
21.6545 2.088
21.6711 2.011
21.6876 2.268
21.7042 2.219
21.7207 2.082
21.7373 2.066
21.7538 2.214
21.7704 2.208
21.7869 2.219
21.8034 1.912
21.8200 2.203
21.8365 2.093
21.8531 2.077
21.8696 2.230
21.8862 2.093
21.9027 2.099
21.9193 2.011
21.9358 2.181
21.9524 2.066
21.9689 1.967
21.9854 2.132
22.0020 2.142
22.0185 2.197
22.0351 1.907
22.0516 2.290
22.0682 2.071
22.0847 1.967
22.1013 2.389
22.1178 2.274
22.1344 1.890
22.1509 2.066
22.1674 1.841
22.1840 2.071
22.2005 2.093
22.2171 1.962
22.2336 2.088
22.2502 1.962
22.2667 1.885
22.2833 2.055
22.2998 2.049
22.3164 1.874
22.3329 1.929
22.3494 1.792
22.3660 2.115
22.3825 1.885
22.3991 1.819
22.4156 2.115
22.4322 2.099
22.4487 2.011
22.4653 2.000
22.4818 2.005
22.4984 1.803
22.5149 1.852
22.5314 1.715
22.5480 2.099
22.5645 2.082
22.5811 1.956
22.5976 1.967
22.6142 1.901
22.6307 1.907
22.6473 1.874
22.6638 1.962
22.6804 2.121
22.6969 1.951
22.7134 1.940
22.7300 2.159
22.7465 1.868
22.7631 1.863
22.7796 2.022
22.7962 2.033
22.8127 2.104
22.8293 1.995
22.8458 2.104
22.8624 1.940
22.8789 2.066
22.8954 2.033
22.9120 2.219
22.9285 1.852
22.9451 1.951
22.9616 2.077
22.9782 1.995
22.9947 2.329
23.0113 1.995
23.0278 2.038
23.0444 1.825
23.0609 2.060
23.0774 1.819
23.0940 1.967
23.1105 1.863
23.1271 1.858
23.1436 1.792
23.1602 1.792
23.1767 1.929
23.1933 2.027
23.2098 1.847
23.2264 1.956
23.2429 1.770
23.2594 1.907
23.2760 1.830
23.2925 2.071
23.3091 1.934
23.3256 1.858
23.3422 2.077
23.3587 1.901
23.3753 1.868
23.3918 1.962
23.4084 1.836
23.4249 1.819
23.4414 1.896
23.4580 1.868
23.4745 1.879
23.4911 1.847
23.5076 1.814
23.5242 1.775
23.5407 1.901
23.5573 1.934
23.5738 1.962
23.5904 1.852
23.6069 2.071
23.6234 1.868
23.6400 1.907
23.6565 1.841
23.6731 1.770
23.6896 1.759
23.7062 1.830
23.7227 1.638
23.7393 1.847
23.7558 1.797
23.7724 1.688
23.7889 1.819
23.8054 1.847
23.8220 1.907
23.8385 1.995
23.8551 2.038
23.8716 1.945
23.8882 1.984
23.9047 1.995
23.9213 2.132
23.9378 1.912
23.9544 1.879
23.9709 2.066
23.9874 1.945
24.0040 1.770
24.0205 2.027
24.0371 1.951
24.0536 2.274
24.0702 2.093
24.0867 2.285
24.1033 2.148
24.1198 2.093
24.1364 2.345
24.1529 2.192
24.1694 2.164
24.1860 2.055
24.2025 2.460
24.2191 2.367
24.2356 2.258
24.2522 2.427
24.2687 2.466
24.2853 2.181
24.3018 2.323
24.3183 2.186
24.3349 2.356
24.3514 2.367
24.3680 2.296
24.3845 2.449
24.4011 2.367
24.4176 2.323
24.4342 2.526
24.4507 2.274
24.4673 2.438
24.4838 2.581
24.5003 2.400
24.5169 2.581
24.5334 2.575
24.5500 2.663
24.5665 2.526
24.5831 2.488
24.5996 2.521
24.6162 2.636
24.6327 2.559
24.6493 2.701
24.6658 2.630
24.6823 2.488
24.6989 2.482
24.7154 2.438
24.7320 2.658
24.7485 2.658
24.7651 2.603
24.7816 2.307
24.7982 2.608
24.8147 2.570
24.8313 2.548
24.8478 2.674
24.8643 2.630
24.8809 2.597
24.8974 2.575
24.9140 2.773
24.9305 2.570
24.9471 2.729
24.9636 2.784
24.9802 2.767
24.9967 2.899
25.0133 2.937
25.0298 2.844
25.0463 2.932
25.0629 2.888
25.0794 2.712
25.0960 3.019
25.1125 3.068
25.1291 3.112
25.1456 3.184
25.1622 3.364
25.1787 3.704
25.1953 3.863
25.2118 3.858
25.2283 3.995
25.2449 4.416
25.2614 4.811
25.2780 5.353
25.2945 5.973
25.3111 6.959
25.3276 8.696
25.3442 10.022
25.3607 12.460
25.3773 14.855
25.3938 19.364
25.4103 23.266
25.4269 28.663
25.4434 33.463
25.4600 36.323
25.4765 36.340
25.4931 33.534
25.5096 29.375
25.5262 24.581
25.5427 20.197
25.5593 15.775
25.5758 11.638
25.5923 9.003
25.6089 7.085
25.6254 5.699
25.6420 4.625
25.6585 3.984
25.6751 3.638
25.6916 3.512
25.7082 3.277
25.7247 3.134
25.7413 2.970
25.7578 3.085
25.7743 2.685
25.7909 2.745
25.8074 2.729
25.8240 2.526
25.8405 2.619
25.8571 2.614
25.8736 2.526
25.8902 2.614
25.9067 2.296
25.9233 2.323
25.9398 2.482
25.9563 2.318
25.9729 2.318
25.9894 2.373
26.0060 2.444
26.0225 2.460
26.0391 2.405
26.0556 2.422
26.0722 2.362
26.0887 2.274
26.1053 2.038
26.1218 2.236
26.1383 2.192
26.1549 2.164
26.1714 2.164
26.1880 2.175
26.2045 2.356
26.2211 2.005
26.2376 2.236
26.2542 2.203
26.2707 2.153
26.2873 2.038
26.3038 2.186
26.3203 2.093
26.3369 1.858
26.3534 2.247
26.3700 2.142
26.3865 2.159
26.4031 2.263
26.4196 2.049
26.4362 2.181
26.4527 2.153
26.4693 2.077
26.4858 2.153
26.5023 2.071
26.5189 2.099
26.5354 2.164
26.5520 2.038
26.5685 2.225
26.5851 2.132
26.6016 2.093
26.6182 1.973
26.6347 1.901
26.6513 2.164
26.6678 1.918
26.6843 2.252
26.7009 1.918
26.7174 1.995
26.7340 2.197
26.7505 1.995
26.7671 1.803
26.7836 1.912
26.8002 1.967
26.8167 1.896
26.8333 1.836
26.8498 2.027
26.8663 1.945
26.8829 1.742
26.8994 1.879
26.9160 1.995
26.9325 2.115
26.9491 1.874
26.9656 1.912
26.9822 1.978
26.9987 1.956
27.0152 1.726
27.0318 1.978
27.0483 1.885
27.0649 2.071
27.0814 1.819
27.0980 1.890
27.1145 1.649
27.1311 1.759
27.1476 1.923
27.1642 2.115
27.1807 1.929
27.1972 1.912
27.2138 1.929
27.2303 1.808
27.2469 1.918
27.2634 1.879
27.2800 1.836
27.2965 1.814
27.3131 1.852
27.3296 1.929
27.3462 2.016
27.3627 1.721
27.3792 1.732
27.3958 1.852
27.4123 1.819
27.4289 1.918
27.4454 1.836
27.4620 1.841
27.4785 1.764
27.4951 1.863
27.5116 1.978
27.5282 1.775
27.5447 1.803
27.5612 1.852
27.5778 1.775
27.5943 1.715
27.6109 1.688
27.6274 1.688
27.6440 1.737
27.6605 1.814
27.6771 1.803
27.6936 1.879
27.7102 1.775
27.7267 1.748
27.7432 1.830
27.7598 1.726
27.7763 1.682
27.7929 1.852
27.8094 1.803
27.8260 1.671
27.8425 1.551
27.8591 1.682
27.8756 1.638
27.8922 1.819
27.9087 1.770
27.9252 1.622
27.9418 1.704
27.9583 1.595
27.9749 1.742
27.9914 1.753
28.0080 1.660
28.0245 1.830
28.0411 1.682
28.0576 1.584
28.0742 1.797
28.0907 1.584
28.1072 1.622
28.1238 1.414
28.1403 1.649
28.1569 1.688
28.1734 1.523
28.1900 1.534
28.2065 1.677
28.2231 1.551
28.2396 1.644
28.2562 1.644
28.2727 1.479
28.2892 1.732
28.3058 1.556
28.3223 1.523
28.3389 1.589
28.3554 1.573
28.3720 1.627
28.3885 1.562
28.4051 1.710
28.4216 1.732
28.4382 1.595
28.4547 1.786
28.4712 1.567
28.4878 1.627
28.5043 1.622
28.5209 1.704
28.5374 1.556
28.5540 1.507
28.5705 1.781
28.5871 1.638
28.6036 1.627
28.6202 1.370
28.6367 1.479
28.6532 1.507
28.6698 1.458
28.6863 1.699
28.7029 1.545
28.7194 1.562
28.7360 1.556
28.7525 1.551
28.7691 1.551
28.7856 1.299
28.8022 1.551
28.8187 1.578
28.8352 1.496
28.8518 1.699
28.8683 1.447
28.8849 1.595
28.9014 1.364
28.9180 1.518
28.9345 1.545
28.9511 1.704
28.9676 1.518
28.9842 1.458
29.0007 1.589
29.0172 1.288
29.0338 1.529
29.0503 1.485
29.0669 1.523
29.0834 1.507
29.1000 1.408
29.1165 1.414
29.1331 1.463
29.1496 1.490
29.1662 1.512
29.1827 1.375
29.1992 1.468
29.2158 1.474
29.2323 1.299
29.2489 1.419
29.2654 1.293
29.2820 1.463
29.2985 1.441
29.3151 1.441
29.3316 1.529
29.3482 1.436
29.3647 1.403
29.3812 1.441
29.3978 1.447
29.4143 1.447
29.4309 1.490
29.4474 1.419
29.4640 1.430
29.4805 1.419
29.4971 1.490
29.5136 1.266
29.5302 1.540
29.5467 1.293
29.5632 1.507
29.5798 1.468
29.5963 1.430
29.6129 1.430
29.6294 1.386
29.6460 1.468
29.6625 1.332
29.6791 1.408
29.6956 1.359
29.7121 1.392
29.7287 1.436
29.7452 1.255
29.7618 1.348
29.7783 1.288
29.7949 1.458
29.8114 1.277
29.8280 1.348
29.8445 1.386
29.8611 1.260
29.8776 1.353
29.8941 1.403
29.9107 1.370
29.9272 1.392
29.9438 1.233
29.9603 1.249
29.9769 1.397
29.9934 1.271
30.0100 1.255
30.0265 1.288
30.0431 1.205
30.0596 1.249
30.0761 1.441
30.0927 1.315
30.1092 1.195
30.1258 1.304
30.1423 1.271
30.1589 1.255
30.1754 1.419
30.1920 1.260
30.2085 1.195
30.2251 1.436
30.2416 1.216
30.2581 1.288
30.2747 1.293
30.2912 1.244
30.3078 1.249
30.3243 1.238
30.3409 1.205
30.3574 1.468
30.3740 1.036
30.3905 1.408
30.4071 1.490
30.4236 1.200
30.4401 1.392
30.4567 1.277
30.4732 1.129
30.4898 1.359
30.5063 1.249
30.5229 1.068
30.5394 1.216
30.5560 1.419
30.5725 1.189
30.5891 1.222
30.6056 1.277
30.6221 1.014
30.6387 1.392
30.6552 1.222
30.6718 1.156
30.6883 1.370
30.7049 1.332
30.7214 1.211
30.7380 1.145
30.7545 1.068
30.7711 1.310
30.7876 1.227
30.8041 1.342
30.8207 1.282
30.8372 1.101
30.8538 1.315
30.8703 1.255
30.8869 1.266
30.9034 1.332
30.9200 1.381
30.9365 1.293
30.9531 1.156
30.9696 1.162
30.9861 1.156
31.0027 1.216
31.0192 1.233
31.0358 1.238
31.0523 1.074
31.0689 1.167
31.0854 1.321
31.1020 1.173
31.1185 1.282
31.1351 1.375
31.1516 1.205
31.1681 1.096
31.1847 1.205
31.2012 1.151
31.2178 1.063
31.2343 1.244
31.2509 1.315
31.2674 1.211
31.2840 1.063
31.3005 1.129
31.3171 1.074
31.3336 1.233
31.3501 1.167
31.3667 1.167
31.3832 1.178
31.3998 1.299
31.4163 1.293
31.4329 1.205
31.4494 1.326
31.4660 1.167
31.4825 1.233
31.4991 1.227
31.5156 1.277
31.5321 1.227
31.5487 1.189
31.5652 1.249
31.5818 1.063
31.5983 1.173
31.6149 1.178
31.6314 1.184
31.6480 1.047
31.6645 1.123
31.6811 1.047
31.6976 0.921
31.7141 1.096
31.7307 1.178
31.7472 1.090
31.7638 1.233
31.7803 1.195
31.7969 1.277
31.8134 1.101
31.8300 1.266
31.8465 1.222
31.8631 1.107
31.8796 1.184
31.8961 1.238
31.9127 1.096
31.9292 1.123
31.9458 1.030
31.9623 1.184
31.9789 1.096
31.9954 1.151
32.0120 1.079
32.0285 1.123
32.0451 1.310
32.0616 0.975
32.0781 1.145
32.0947 1.052
32.1112 1.178
32.1278 1.211
32.1443 1.008
32.1609 1.003
32.1774 0.953
32.1940 1.096
32.2105 0.948
32.2271 1.266
32.2436 1.101
32.2601 1.118
32.2767 1.205
32.2932 1.118
32.3098 1.008
32.3263 1.041
32.3429 1.145
32.3594 1.079
32.3760 1.047
32.3925 1.112
32.4091 1.014
32.4256 1.140
32.4421 1.145
32.4587 1.145
32.4752 0.921
32.4918 1.260
32.5083 1.156
32.5249 1.036
32.5414 1.101
32.5580 1.189
32.5745 1.123
32.5910 1.205
32.6076 1.074
32.6241 1.047
32.6407 1.151
32.6572 1.151
32.6738 1.085
32.6903 1.205
32.7069 1.156
32.7234 1.019
32.7400 0.970
32.7565 1.068
32.7730 1.079
32.7896 1.118
32.8061 1.151
32.8227 1.085
32.8392 1.101
32.8558 1.058
32.8723 1.118
32.8889 1.036
32.9054 1.014
32.9220 1.140
32.9385 1.222
32.9550 0.921
32.9716 1.063
32.9881 1.025
33.0047 1.074
33.0212 1.063
33.0378 1.019
33.0543 1.096
33.0709 1.090
33.0874 1.003
33.1040 1.052
33.1205 1.101
33.1370 0.932
33.1536 1.019
33.1701 1.107
33.1867 1.003
33.2032 1.178
33.2198 1.019
33.2363 1.003
33.2529 1.107
33.2694 0.981
33.2860 1.167
33.3025 1.052
33.3190 1.145
33.3356 1.101
33.3521 1.019
33.3687 1.058
33.3852 1.008
33.4018 1.041
33.4183 1.036
33.4349 1.162
33.4514 1.107
33.4680 1.310
33.4845 1.151
33.5010 1.025
33.5176 1.068
33.5341 1.068
33.5507 0.921
33.5672 1.178
33.5838 1.112
33.6003 1.260
33.6169 1.134
33.6334 1.140
33.6500 1.178
33.6665 1.211
33.6830 1.047
33.6996 1.184
33.7161 1.332
33.7327 1.227
33.7492 1.266
33.7658 1.255
33.7823 1.370
33.7989 1.266
33.8154 1.364
33.8320 1.364
33.8485 1.244
33.8650 1.189
33.8816 1.364
33.8981 1.332
33.9147 1.299
33.9312 1.458
33.9478 1.293
33.9643 1.310
33.9809 1.211
33.9974 1.145
34.0140 1.288
34.0305 1.288
34.0470 1.342
34.0636 1.200
34.0801 1.184
34.0967 1.490
34.1132 1.227
34.1298 1.310
34.1463 1.392
34.1629 1.304
34.1794 1.304
34.1960 1.293
34.2125 1.348
34.2290 1.375
34.2456 1.397
34.2621 1.485
34.2787 1.430
34.2952 1.441
34.3118 1.271
34.3283 1.310
34.3449 1.556
34.3614 1.595
34.3780 1.512
34.3945 1.408
34.4110 1.518
34.4276 1.375
34.4441 1.808
34.4607 1.540
34.4772 1.616
34.4938 1.638
34.5103 1.666
34.5269 1.874
34.5434 1.814
34.5600 1.710
34.5765 1.995
34.5930 2.307
34.6096 2.247
34.6261 2.373
34.6427 2.559
34.6592 2.745
34.6758 2.975
34.6923 3.562
34.7089 3.879
34.7254 4.553
34.7420 4.767
34.7585 5.600
34.7750 6.077
34.7916 7.260
34.8081 8.625
34.8247 10.581
34.8412 12.011
34.8578 14.055
34.8743 17.205
34.8909 21.299
34.9074 27.556
34.9240 33.595
34.9405 40.663
34.9570 45.978
34.9736 50.258
34.9901 47.989
35.0067 44.356
35.0232 39.403
35.0398 34.301
35.0563 30.729
35.0729 27.211
35.0894 22.438
35.1060 16.860
35.1225 12.981
35.1390 9.068
35.1556 7.014
35.1721 5.118
35.1887 4.066
35.2052 3.501
35.2218 3.156
35.2383 2.707
35.2549 2.570
35.2714 2.148
35.2879 2.077
35.3045 2.164
35.3210 1.945
35.3376 1.688
35.3541 1.797
35.3707 1.534
35.3872 1.885
35.4038 1.633
35.4203 1.512
35.4369 1.595
35.4534 1.627
35.4699 1.496
35.4865 1.425
35.5030 1.529
35.5196 1.463
35.5361 1.660
35.5527 1.375
35.5692 1.277
35.5858 1.255
35.6023 1.277
35.6189 1.452
35.6354 1.200
35.6519 1.364
35.6685 1.299
35.6850 1.353
35.7016 1.216
35.7181 1.392
35.7347 1.189
35.7512 1.255
35.7678 1.189
35.7843 1.184
35.8009 1.047
35.8174 1.277
35.8339 1.216
35.8505 1.063
35.8670 1.233
35.8836 1.216
35.9001 1.063
35.9167 1.090
35.9332 1.156
35.9498 1.266
35.9663 1.129
35.9829 1.079
35.9994 1.173
36.0159 1.129
36.0325 1.090
36.0490 0.937
36.0656 1.058
36.0821 1.096
36.0987 1.107
36.1152 1.244
36.1318 1.151
36.1483 0.981
36.1649 1.085
36.1814 1.019
36.1979 1.173
36.2145 1.036
36.2310 1.200
36.2476 1.145
36.2641 1.200
36.2807 1.167
36.2972 1.134
36.3138 1.058
36.3303 1.205
36.3469 1.118
36.3634 1.249
36.3799 1.107
36.3965 1.200
36.4130 1.156
36.4296 1.090
36.4461 1.167
36.4627 1.205
36.4792 1.101
36.4958 1.025
36.5123 1.288
36.5289 1.205
36.5454 1.112
36.5619 1.090
36.5785 1.162
36.5950 1.063
36.6116 1.238
36.6281 1.041
36.6447 1.134
36.6612 1.112
36.6778 1.085
36.6943 1.205
36.7109 1.195
36.7274 1.205
36.7439 1.364
36.7605 1.288
36.7770 1.173
36.7936 1.123
36.8101 1.129
36.8267 1.205
36.8432 1.184
36.8598 1.068
36.8763 1.167
36.8929 1.260
36.9094 1.304
36.9259 1.068
36.9425 1.200
36.9590 1.140
36.9756 0.997
36.9921 1.096
37.0087 0.970
37.0252 1.260
37.0418 1.195
37.0583 1.260
37.0749 1.348
37.0914 1.178
37.1079 1.222
37.1245 1.271
37.1410 1.310
37.1576 1.288
37.1741 1.414
37.1907 1.293
37.2072 1.490
37.2238 1.496
37.2403 1.584
37.2569 1.677
37.2734 1.732
37.2899 1.775
37.3065 2.016
37.3230 1.967
37.3396 1.989
37.3561 2.400
37.3727 2.701
37.3892 3.030
37.4058 3.326
37.4223 3.923
37.4389 4.433
37.4554 4.827
37.4719 5.830
37.4885 6.658
37.5050 8.493
37.5216 9.622
37.5381 12.115
37.5547 15.025
37.5712 17.474
37.5878 19.205
37.6043 19.912
37.6209 19.047
37.6374 16.559
37.6539 15.014
37.6705 12.762
37.6870 12.099
37.7036 10.723
37.7201 9.052
37.7367 7.545
37.7532 5.803
37.7698 3.721
37.7863 2.910
37.8029 2.696
37.8194 2.093
37.8359 1.934
37.8525 1.742
37.8690 1.682
37.8856 1.622
37.9021 1.584
37.9187 1.441
37.9352 1.529
37.9518 1.332
37.9683 1.370
37.9848 1.403
38.0014 1.244
38.0179 1.200
38.0345 1.282
38.0510 1.145
38.0676 1.145
38.0841 1.255
38.1007 1.068
38.1172 1.205
38.1338 1.211
38.1503 1.156
38.1668 1.074
38.1834 1.211
38.1999 1.266
38.2165 1.145
38.2330 1.079
38.2496 1.036
38.2661 1.205
38.2827 1.019
38.2992 1.112
38.3158 0.992
38.3323 1.068
38.3488 0.997
38.3654 1.047
38.3819 1.107
38.3985 1.079
38.4150 1.008
38.4316 1.052
38.4481 0.904
38.4647 0.953
38.4812 0.997
38.4978 0.986
38.5143 1.129
38.5308 1.030
38.5474 0.921
38.5639 1.052
38.5805 1.085
38.5970 0.964
38.6136 1.052
38.6301 0.986
38.6467 0.899
38.6632 1.003
38.6798 1.074
38.6963 1.167
38.7128 0.893
38.7294 0.970
38.7459 1.156
38.7625 1.008
38.7790 1.123
38.7956 1.112
38.8121 1.019
38.8287 1.041
38.8452 1.041
38.8618 1.008
38.8783 1.025
38.8948 1.014
38.9114 0.932
38.9279 0.910
38.9445 0.948
38.9610 0.953
38.9776 0.811
38.9941 0.970
39.0107 0.838
39.0272 0.970
39.0438 0.986
39.0603 0.871
39.0768 0.888
39.0934 0.888
39.1099 0.970
39.1265 0.975
39.1430 1.041
39.1596 0.942
39.1761 0.904
39.1927 0.882
39.2092 1.008
39.2258 0.910
39.2423 0.893
39.2588 1.025
39.2754 0.915
39.2919 0.833
39.3085 0.975
39.3250 0.910
39.3416 1.041
39.3581 0.882
39.3747 0.855
39.3912 0.915
39.4078 0.877
39.4243 0.844
39.4408 0.827
39.4574 0.953
39.4739 0.816
39.4905 0.932
39.5070 1.068
39.5236 0.921
39.5401 0.899
39.5567 0.877
39.5732 0.926
39.5898 0.838
39.6063 0.937
39.6228 0.816
39.6394 0.975
39.6559 0.937
39.6725 0.778
39.6890 0.844
39.7056 0.789
39.7221 0.871
39.7387 0.811
39.7552 0.910
39.7718 0.893
39.7883 0.899
39.8048 0.942
39.8214 0.877
39.8379 0.964
39.8545 0.904
39.8710 0.932
39.8876 0.953
39.9041 0.942
39.9207 1.036
39.9372 0.871
39.9538 0.910
39.9703 0.997
39.9868 0.915
40.0034 0.816
40.0199 0.860
40.0365 0.937
40.0530 0.877
40.0696 0.877
40.0861 0.827
40.1027 0.762
40.1192 0.800
40.1358 0.860
40.1523 0.762
40.1688 0.778
40.1854 0.970
40.2019 0.888
40.2185 0.723
40.2350 0.849
40.2516 0.800
40.2681 0.833
40.2847 0.926
40.3012 0.893
40.3178 0.838
40.3343 0.860
40.3508 0.849
40.3674 0.833
40.3839 0.882
40.4005 0.937
40.4170 0.899
40.4336 0.827
40.4501 0.833
40.4667 0.904
40.4832 0.827
40.4998 0.937
40.5163 0.800
40.5328 0.844
40.5494 0.866
40.5659 0.844
40.5825 0.910
40.5990 1.047
40.6156 0.822
40.6321 0.937
40.6487 0.712
40.6652 0.866
40.6818 0.948
40.6983 0.970
40.7148 0.756
40.7314 1.008
40.7479 0.932
40.7645 0.964
40.7810 0.811
40.7976 0.773
40.8141 0.866
40.8307 0.822
40.8472 0.811
40.8637 0.833
40.8803 0.882
40.8968 0.877
40.9134 0.910
40.9299 0.904
40.9465 0.893
40.9630 0.877
40.9796 0.762
40.9961 0.899
41.0127 0.937
41.0292 0.795
41.0457 0.926
41.0623 0.899
41.0788 0.811
41.0954 0.860
41.1119 0.888
41.1285 0.877
41.1450 0.877
41.1616 0.970
41.1781 0.932
41.1947 0.822
41.2112 0.893
41.2277 0.970
41.2443 0.893
41.2608 0.844
41.2774 0.942
41.2939 1.063
41.3105 1.019
41.3270 0.855
41.3436 1.085
41.3601 1.063
41.3767 0.997
41.3932 1.211
41.4097 1.277
41.4263 1.414
41.4428 1.392
41.4594 1.474
41.4759 1.545
41.4925 1.304
41.5090 1.266
41.5256 1.145
41.5421 1.052
41.5587 1.227
41.5752 1.173
41.5917 1.112
41.6083 1.260
41.6248 1.068
41.6414 0.981
41.6579 0.992
41.6745 0.975
41.6910 1.052
41.7076 1.025
41.7241 1.123
41.7407 1.047
41.7572 1.085
41.7737 1.058
41.7903 1.085
41.8068 0.997
41.8234 0.959
41.8399 0.975
41.8565 1.041
41.8730 0.904
41.8896 1.047
41.9061 1.047
41.9227 1.074
41.9392 0.986
41.9557 1.008
41.9723 0.964
41.9888 1.030
42.0054 1.205
42.0219 1.129
42.0385 1.003
42.0550 1.047
42.0716 1.107
42.0881 1.052
42.1047 1.036
42.1212 1.074
42.1377 1.096
42.1543 1.052
42.1708 1.063
42.1874 1.101
42.2039 1.025
42.2205 1.112
42.2370 1.151
42.2536 1.101
42.2701 1.156
42.2867 1.036
42.3032 1.112
42.3197 1.173
42.3363 0.986
42.3528 1.184
42.3694 1.014
42.3859 1.074
42.4025 0.953
42.4190 1.249
42.4356 1.129
42.4521 1.266
42.4687 1.123
42.4852 1.195
42.5017 1.299
42.5183 1.408
42.5348 1.238
42.5514 1.359
42.5679 1.238
42.5845 1.266
42.6010 1.375
42.6176 1.310
42.6341 1.534
42.6507 1.414
42.6672 1.622
42.6837 1.688
42.7003 1.858
42.7168 1.770
42.7334 1.627
42.7499 2.115
42.7665 2.203
42.7830 2.378
42.7996 2.647
42.8161 3.058
42.8327 3.134
42.8492 3.688
42.8657 4.027
42.8823 4.718
42.8988 5.249
42.9154 5.616
42.9319 6.438
42.9485 7.622
42.9650 8.723
42.9816 10.290
42.9981 11.995
43.0147 14.564
43.0312 17.485
43.0477 21.825
43.0643 26.142
43.0808 31.184
43.0974 37.825
43.1139 43.962
43.1305 47.792
43.1470 48.948
43.1636 45.233
43.1801 39.222
43.1967 32.904
43.2132 29.759
43.2297 28.258
43.2463 26.608
43.2628 24.614
43.2794 20.652
43.2959 15.211
43.3125 11.578
43.3290 8.329
43.3456 5.879
43.3621 4.455
43.3787 3.868
43.3952 3.403
43.4117 2.926
43.4283 2.877
43.4448 2.258
43.4614 2.142
43.4779 2.016
43.4945 1.819
43.5110 1.633
43.5276 1.529
43.5441 1.551
43.5606 1.573
43.5772 1.584
43.5937 1.468
43.6103 1.414
43.6268 1.249
43.6434 1.348
43.6599 1.348
43.6765 1.463
43.6930 1.244
43.7096 1.189
43.7261 1.249
43.7426 1.200
43.7592 1.233
43.7757 1.107
43.7923 1.271
43.8088 1.162
43.8254 1.068
43.8419 0.975
43.8585 1.134
43.8750 1.041
43.8916 1.063
43.9081 0.910
43.9246 1.025
43.9412 1.074
43.9577 1.003
43.9743 1.074
43.9908 1.052
44.0074 1.019
44.0239 0.915
44.0405 0.948
44.0570 1.090
44.0736 0.942
44.0901 0.942
44.1066 0.866
44.1232 0.992
44.1397 0.860
44.1563 0.948
44.1728 0.816
44.1894 0.915
44.2059 0.932
44.2225 0.816
44.2390 0.964
44.2556 0.899
44.2721 0.805
44.2886 0.937
44.3052 0.926
44.3217 1.014
44.3383 0.948
44.3548 0.877
44.3714 0.921
44.3879 0.871
44.4045 0.877
44.4210 0.827
44.4376 0.981
44.4541 0.942
44.4706 0.805
44.4872 0.992
44.5037 0.986
44.5203 0.855
44.5368 0.948
44.5534 0.860
44.5699 0.855
44.5865 0.899
44.6030 0.888
44.6196 0.844
44.6361 0.904
44.6526 0.877
44.6692 0.805
44.6857 0.827
44.7023 0.756
44.7188 0.937
44.7354 0.915
44.7519 0.805
44.7685 0.822
44.7850 0.773
44.8016 0.871
44.8181 0.805
44.8346 0.805
44.8512 0.795
44.8677 0.838
44.8843 0.882
44.9008 0.932
44.9174 0.805
44.9339 0.904
44.9505 0.838
44.9670 0.756
44.9836 0.751
45.0001 0.740
45.0166 0.718
45.0332 0.893
45.0497 0.888
45.0663 0.811
45.0828 0.816
45.0994 0.800
45.1159 0.822
45.1325 0.849
45.1490 0.745
45.1656 0.860
45.1821 0.822
45.1986 0.767
45.2152 0.838
45.2317 0.975
45.2483 0.789
45.2648 0.833
45.2814 0.838
45.2979 0.773
45.3145 0.690
45.3310 0.849
45.3476 0.778
45.3641 0.849
45.3806 0.822
45.3972 0.816
45.4137 0.723
45.4303 0.849
45.4468 0.888
45.4634 0.745
45.4799 0.778
45.4965 0.707
45.5130 0.751
45.5296 0.866
45.5461 0.915
45.5626 0.827
45.5792 0.904
45.5957 0.937
45.6123 0.866
45.6288 0.827
45.6454 0.860
45.6619 0.800
45.6785 0.932
45.6950 0.904
45.7116 0.822
45.7281 0.937
45.7446 0.921
45.7612 0.871
45.7777 0.855
45.7943 0.855
45.8108 0.932
45.8274 0.959
45.8439 1.079
45.8605 1.036
45.8770 1.074
45.8936 1.068
45.9101 1.145
45.9266 1.288
45.9432 1.195
45.9597 1.260
45.9763 1.332
45.9928 1.047
46.0094 1.140
46.0259 1.030
46.0425 1.090
46.0590 1.079
46.0756 1.079
46.0921 1.074
46.1086 0.942
46.1252 0.767
46.1417 0.953
46.1583 0.915
46.1748 0.932
46.1914 0.712
46.2079 0.767
46.2245 0.751
46.2410 0.625
46.2575 0.866
46.2741 0.690
46.2906 0.784
46.3072 0.614
46.3237 0.756
46.3403 0.696
46.3568 0.608
46.3734 0.674
46.3899 0.756
46.4065 0.756
46.4230 0.767
46.4395 0.751
46.4561 0.893
46.4726 0.762
46.4892 0.652
46.5057 0.816
46.5223 0.729
46.5388 0.696
46.5554 0.849
46.5719 0.833
46.5885 0.789
46.6050 0.751
46.6215 0.773
46.6381 0.838
46.6546 0.641
46.6712 0.822
46.6877 0.619
46.7043 0.849
46.7208 0.679
46.7374 0.778
46.7539 0.795
46.7705 0.647
46.7870 0.844
46.8035 0.641
46.8201 0.756
46.8366 0.816
46.8532 0.904
46.8697 0.849
46.8863 0.729
46.9028 0.784
46.9194 0.745
46.9359 0.712
46.9525 0.795
46.9690 0.740
46.9855 0.795
47.0021 0.690
47.0186 0.756
47.0352 0.707
47.0517 0.685
47.0683 0.811
47.0848 0.784
47.1014 0.625
47.1179 0.652
47.1345 0.668
47.1510 0.729
47.1675 0.701
47.1841 0.773
47.2006 0.603
47.2172 0.773
47.2337 0.668
47.2503 0.718
47.2668 0.712
47.2834 0.690
47.2999 0.745
47.3165 0.789
47.3330 0.630
47.3495 0.663
47.3661 0.767
47.3826 0.690
47.3992 0.718
47.4157 0.740
47.4323 0.718
47.4488 0.784
47.4654 0.674
47.4819 0.822
47.4985 0.751
47.5150 0.712
47.5315 0.663
47.5481 0.795
47.5646 0.778
47.5812 0.679
47.5977 0.762
47.6143 0.729
47.6308 0.641
47.6474 0.581
47.6639 0.663
47.6805 0.674
47.6970 0.690
47.7135 0.745
47.7301 0.625
47.7466 0.674
47.7632 0.707
47.7797 0.641
47.7963 0.729
47.8128 0.751
47.8294 0.756
47.8459 0.740
47.8625 0.734
47.8790 0.734
47.8955 0.690
47.9121 0.679
47.9286 0.679
47.9452 0.696
47.9617 0.685
47.9783 0.838
47.9948 0.696
48.0114 0.581
48.0279 0.658
48.0445 0.614
48.0610 0.690
48.0775 0.811
48.0941 0.559
48.1106 0.718
48.1272 0.586
48.1437 0.685
48.1603 0.668
48.1768 0.564
48.1934 0.641
48.2099 0.668
48.2265 0.652
48.2430 0.663
48.2595 0.564
48.2761 0.690
48.2926 0.658
48.3092 0.778
48.3257 0.701
48.3423 0.701
48.3588 0.658
48.3754 0.652
48.3919 0.630
48.4085 0.619
48.4250 0.674
48.4415 0.636
48.4581 0.679
48.4746 0.723
48.4912 0.745
48.5077 0.663
48.5243 0.658
48.5408 0.690
48.5574 0.575
48.5739 0.690
48.5905 0.668
48.6070 0.668
48.6235 0.729
48.6401 0.668
48.6566 0.663
48.6732 0.614
48.6897 0.663
48.7063 0.696
48.7228 0.625
48.7394 0.685
48.7559 0.597
48.7725 0.658
48.7890 0.586
48.8055 0.773
48.8221 0.696
48.8386 0.679
48.8552 0.603
48.8717 0.570
48.8883 0.767
48.9048 0.592
48.9214 0.619
48.9379 0.658
48.9545 0.690
48.9710 0.663
48.9875 0.701
49.0041 0.663
49.0206 0.619
49.0372 0.696
49.0537 0.789
49.0703 0.679
49.0868 0.707
49.1034 0.581
49.1199 0.674
49.1364 0.603
49.1530 0.521
49.1695 0.559
49.1861 0.723
49.2026 0.641
49.2192 0.652
49.2357 0.614
49.2523 0.570
49.2688 0.701
49.2854 0.641
49.3019 0.608
49.3184 0.674
49.3350 0.745
49.3515 0.647
49.3681 0.581
49.3846 0.652
49.4012 0.597
49.4177 0.630
49.4343 0.701
49.4508 0.685
49.4674 0.526
49.4839 0.679
49.5004 0.614
49.5170 0.751
49.5335 0.773
49.5501 0.630
49.5666 0.586
49.5832 0.647
49.5997 0.597
49.6163 0.608
49.6328 0.614
49.6494 0.586
49.6659 0.652
49.6824 0.658
49.6990 0.696
49.7155 0.608
49.7321 0.581
49.7486 0.608
49.7652 0.564
49.7817 0.696
49.7983 0.586
49.8148 0.647
49.8314 0.663
49.8479 0.625
49.8644 0.723
49.8810 0.723
49.8975 0.674
49.9141 0.652
49.9306 0.630
49.9472 0.685
49.9637 0.685
49.9803 0.647
49.9968 0.674
50.0134 0.729
50.0299 0.625
50.0464 0.619
50.0630 0.696
50.0795 0.625
50.0961 0.647
50.1126 0.663
50.1292 0.614
50.1457 0.696
50.1623 0.630
50.1788 0.734
50.1954 0.668
50.2119 0.575
50.2284 0.603
50.2450 0.778
50.2615 0.614
50.2781 0.592
50.2946 0.570
50.3112 0.723
50.3277 0.778
50.3443 0.762
50.3608 0.668
50.3774 0.674
50.3939 0.685
50.4104 0.658
50.4270 0.740
50.4435 0.685
50.4601 0.822
50.4766 0.751
50.4932 0.636
50.5097 0.690
50.5263 0.756
50.5428 0.658
50.5594 0.636
50.5759 0.707
50.5924 0.767
50.6090 0.493
50.6255 0.718
50.6421 0.614
50.6586 0.734
50.6752 0.674
50.6917 0.734
50.7083 0.773
50.7248 0.712
50.7414 0.723
50.7579 0.707
50.7744 0.685
50.7910 0.641
50.8075 0.767
50.8241 0.674
50.8406 0.718
50.8572 0.707
50.8737 0.696
50.8903 0.674
50.9068 0.663
50.9234 0.751
50.9399 0.647
50.9564 0.685
50.9730 0.630
50.9895 0.734
51.0061 0.619
51.0226 0.734
51.0392 0.696
51.0557 0.707
51.0723 0.816
51.0888 0.805
51.1054 0.729
51.1219 0.866
51.1384 0.795
51.1550 0.762
51.1715 0.959
51.1881 0.751
51.2046 0.893
51.2212 0.756
51.2377 0.866
51.2543 0.866
51.2708 0.948
51.2874 0.751
51.3039 0.849
51.3204 0.756
51.3370 0.740
51.3535 0.767
51.3701 0.773
51.3866 0.822
51.4032 0.767
51.4197 0.800
51.4363 0.745
51.4528 0.685
51.4694 0.751
51.4859 0.718
51.5024 0.822
51.5190 0.844
51.5355 0.838
51.5521 0.992
51.5686 0.773
51.5852 0.910
51.6017 0.690
51.6183 0.871
51.6348 0.926
51.6514 0.795
51.6679 0.647
51.6844 0.981
51.7010 0.844
51.7175 0.964
51.7341 0.849
51.7506 0.827
51.7672 0.888
51.7837 1.030
51.8003 0.981
51.8168 1.112
51.8333 1.074
51.8499 1.140
51.8664 1.123
51.8830 1.162
51.8995 1.310
51.9161 1.474
51.9326 1.458
51.9492 1.803
51.9657 1.896
51.9823 1.940
51.9988 2.351
52.0153 2.395
52.0319 2.674
52.0484 2.992
52.0650 3.589
52.0815 3.748
52.0981 4.219
52.1146 5.205
52.1312 5.638
52.1477 7.008
52.1643 8.022
52.1808 9.178
52.1973 11.227
52.2139 13.468
52.2304 15.282
52.2470 17.227
52.2635 20.060
52.2801 20.268
52.2966 20.230
52.3132 16.970
52.3297 14.175
52.3463 12.164
52.3628 11.195
52.3793 10.893
52.3959 11.151
52.4124 11.129
52.4290 10.126
52.4455 9.101
52.4621 7.271
52.4786 5.304
52.4952 4.192
52.5117 3.085
52.5283 2.422
52.5448 2.071
52.5613 1.638
52.5779 1.611
52.5944 1.452
52.6110 1.255
52.6275 1.375
52.6441 1.079
52.6606 1.101
52.6772 1.096
52.6937 1.052
52.7103 1.047
52.7268 1.079
52.7433 1.058
52.7599 0.959
52.7764 0.964
52.7930 1.003
52.8095 0.805
52.8261 0.981
52.8426 0.866
52.8592 0.866
52.8757 0.838
52.8923 0.855
52.9088 0.915
52.9253 0.784
52.9419 0.866
52.9584 0.855
52.9750 0.690
52.9915 0.712
53.0081 0.729
53.0246 0.877
53.0412 0.805
53.0577 0.707
53.0743 0.838
53.0908 0.696
53.1073 0.723
53.1239 0.789
53.1404 0.668
53.1570 0.641
53.1735 0.723
53.1901 0.745
53.2066 0.718
53.2232 0.707
53.2397 0.838
53.2563 0.811
53.2728 0.652
53.2893 0.729
53.3059 0.668
53.3224 0.592
53.3390 0.647
53.3555 0.663
53.3721 0.734
53.3886 0.553
53.4052 0.663
53.4217 0.652
53.4383 0.548
53.4548 0.751
53.4713 0.696
53.4879 0.641
53.5044 0.751
53.5210 0.696
53.5375 0.795
53.5541 0.685
53.5706 0.707
53.5872 0.679
53.6037 0.636
53.6203 0.740
53.6368 0.690
53.6533 0.784
53.6699 0.674
53.6864 0.679
53.7030 0.548
53.7195 0.767
53.7361 0.630
53.7526 0.586
53.7692 0.696
53.7857 0.674
53.8023 0.630
53.8188 0.652
53.8353 0.641
53.8519 0.619
53.8684 0.647
53.8850 0.608
53.9015 0.630
53.9181 0.597
53.9346 0.614
53.9512 0.718
53.9677 0.630
53.9843 0.762
54.0008 0.603
54.0173 0.548
54.0339 0.597
54.0504 0.652
54.0670 0.663
54.0835 0.625
54.1001 0.679
54.1166 0.548
54.1332 0.521
54.1497 0.614
54.1663 0.504
54.1828 0.559
54.1993 0.751
54.2159 0.652
54.2324 0.630
54.2490 0.679
54.2655 0.559
54.2821 0.833
54.2986 0.625
54.3152 0.641
54.3317 0.614
54.3483 0.641
54.3648 0.636
54.3813 0.685
54.3979 0.663
54.4144 0.570
54.4310 0.679
54.4475 0.690
54.4641 0.597
54.4806 0.532
54.4972 0.652
54.5137 0.592
54.5302 0.630
54.5468 0.690
54.5633 0.679
54.5799 0.679
54.5964 0.537
54.6130 0.685
54.6295 0.592
54.6461 0.701
54.6626 0.625
54.6792 0.674
54.6957 0.575
54.7122 0.745
54.7288 0.701
54.7453 0.630
54.7619 0.564
54.7784 0.548
54.7950 0.630
54.8115 0.564
54.8281 0.707
54.8446 0.685
54.8612 0.696
54.8777 0.668
54.8942 0.641
54.9108 0.586
54.9273 0.696
54.9439 0.586
54.9604 0.668
54.9770 0.718
54.9935 0.652
55.0101 0.773
55.0266 0.625
55.0432 0.712
55.0597 0.690
55.0762 0.685
55.0928 0.767
55.1093 0.723
55.1259 0.668
55.1424 0.767
55.1590 0.663
55.1755 0.679
55.1921 0.784
55.2086 0.652
55.2252 0.778
55.2417 0.668
55.2582 0.789
55.2748 0.751
55.2913 0.685
55.3079 0.690
55.3244 0.690
55.3410 0.844
55.3575 0.712
55.3741 0.712
55.3906 0.745
55.4072 0.586
55.4237 0.701
55.4402 0.762
55.4568 0.690
55.4733 0.729
55.4899 0.805
55.5064 0.784
55.5230 0.795
55.5395 0.784
55.5561 0.778
55.5726 0.729
55.5892 0.647
55.6057 0.729
55.6222 0.800
55.6388 0.729
55.6553 0.679
55.6719 0.816
55.6884 0.822
55.7050 0.762
55.7215 0.866
55.7381 0.800
55.7546 0.723
55.7712 0.751
55.7877 0.800
55.8042 0.608
55.8208 0.663
55.8373 0.674
55.8539 0.663
55.8704 0.652
55.8870 0.658
55.9035 0.877
55.9201 0.729
55.9366 0.762
55.9532 0.893
55.9697 0.784
55.9862 0.805
56.0028 0.822
56.0193 0.795
56.0359 0.663
56.0524 0.833
56.0690 0.685
56.0855 0.685
56.1021 0.784
56.1186 0.784
56.1352 0.795
56.1517 0.679
56.1682 0.729
56.1848 0.696
56.2013 0.838
56.2179 0.789
56.2344 0.882
56.2510 0.745
56.2675 0.942
56.2841 0.932
56.3006 0.805
56.3172 0.811
56.3337 0.822
56.3502 0.942
56.3668 0.904
56.3833 0.882
56.3999 0.997
56.4164 0.910
56.4330 0.910
56.4495 0.932
56.4661 0.926
56.4826 0.948
56.4992 0.899
56.5157 1.063
56.5322 1.030
56.5488 1.107
56.5653 1.008
56.5819 0.926
56.5984 1.140
56.6150 1.145
56.6315 1.014
56.6481 1.244
56.6646 1.255
56.6812 1.408
56.6977 1.474
56.7142 1.496
56.7308 1.485
56.7473 1.666
56.7639 1.627
56.7804 1.814
56.7970 1.858
56.8135 2.115
56.8301 2.384
56.8466 2.559
56.8632 3.101
56.8797 3.425
56.8962 3.688
56.9128 3.973
56.9293 4.553
56.9459 5.145
56.9624 5.266
56.9790 6.460
56.9955 7.310
57.0121 8.592
57.0286 9.803
57.0452 10.997
57.0617 13.562
57.0782 15.945
57.0948 19.255
57.1113 22.899
57.1279 25.699
57.1444 30.197
57.1610 34.625
57.1775 37.008
57.1941 37.326
57.2106 34.575
57.2272 28.784
57.2437 24.608
57.2602 20.636
57.2768 18.323
57.2933 18.811
57.3099 19.918
57.3264 19.836
57.3430 19.775
57.3595 17.721
57.3761 15.479
57.3926 11.523
57.4091 8.795
57.4257 6.126
57.4422 4.877
57.4588 4.066
57.4753 2.992
57.4919 2.564
57.5084 2.542
57.5250 2.175
57.5415 2.110
57.5581 1.896
57.5746 1.879
57.5911 1.584
57.6077 1.419
57.6242 1.386
57.6408 1.205
57.6573 1.310
57.6739 1.310
57.6904 1.233
57.7070 1.189
57.7235 0.964
57.7401 1.030
57.7566 1.085
57.7731 0.953
57.7897 1.085
57.8062 0.948
57.8228 0.975
57.8393 1.118
57.8559 0.778
57.8724 1.129
57.8890 1.014
57.9055 0.959
57.9221 0.888
57.9386 0.948
57.9551 0.855
57.9717 0.816
57.9882 0.893
58.0048 0.893
58.0213 0.740
58.0379 0.849
58.0544 0.838
58.0710 0.811
58.0875 0.805
58.1041 0.882
58.1206 0.767
58.1371 0.734
58.1537 0.827
58.1702 0.784
58.1868 0.756
58.2033 0.712
58.2199 0.751
58.2364 0.745
58.2530 0.860
58.2695 0.745
58.2861 0.625
58.3026 0.762
58.3191 0.773
58.3357 0.816
58.3522 0.745
58.3688 0.723
58.3853 0.696
58.4019 0.707
58.4184 0.652
58.4350 0.734
58.4515 0.773
58.4681 0.745
58.4846 0.614
58.5011 0.652
58.5177 0.795
58.5342 0.734
58.5508 0.679
58.5673 0.619
58.5839 0.707
58.6004 0.652
58.6170 0.674
58.6335 0.647
58.6501 0.625
58.6666 0.625
58.6831 0.679
58.6997 0.767
58.7162 0.723
58.7328 0.690
58.7493 0.658
58.7659 0.723
58.7824 0.762
58.7990 0.718
58.8155 0.696
58.8321 0.641
58.8486 0.630
58.8651 0.795
58.8817 0.789
58.8982 0.647
58.9148 0.658
58.9313 0.575
58.9479 0.636
58.9644 0.707
58.9810 0.877
58.9975 0.652
59.0141 0.734
59.0306 0.712
59.0471 0.745
59.0637 0.822
59.0802 0.882
59.0968 0.784
59.1133 0.625
59.1299 0.773
59.1464 0.701
59.1630 0.838
59.1795 0.789
59.1961 0.838
59.2126 0.789
59.2291 0.816
59.2457 0.756
59.2622 0.871
59.2788 0.778
59.2953 0.953
59.3119 1.030
59.3284 1.058
59.3450 1.079
59.3615 1.271
59.3781 1.227
59.3946 1.436
59.4111 1.447
59.4277 1.644
59.4442 1.660
59.4608 1.408
59.4773 1.342
59.4939 1.107
59.5104 1.112
59.5270 1.112
59.5435 1.189
59.5601 1.019
59.5766 1.058
59.5931 1.030
59.6097 0.904
59.6262 0.915
59.6428 0.734
59.6593 0.915
59.6759 0.816
59.6924 0.701
59.7090 0.679
59.7255 0.701
59.7421 0.712
59.7586 0.608
59.7751 0.767
59.7917 0.707
59.8082 0.696
59.8248 0.723
59.8413 0.745
59.8579 0.581
59.8744 0.690
59.8910 0.652
59.9075 0.625
59.9241 0.641
59.9406 0.597
59.9571 0.636
59.9737 0.570
59.9902 0.707
60.0068 0.658
60.0233 0.696
60.0399 0.696
60.0564 0.575
60.0730 0.592
60.0895 0.619
60.1060 0.641
60.1226 0.625
60.1391 0.581
60.1557 0.526
60.1722 0.690
60.1888 0.630
60.2053 0.647
60.2219 0.608
60.2384 0.570
60.2550 0.668
60.2715 0.553
60.2880 0.658
60.3046 0.608
60.3211 0.575
60.3377 0.597
60.3542 0.696
60.3708 0.696
60.3873 0.641
60.4039 0.745
60.4204 0.690
60.4370 0.800
60.4535 0.696
60.4700 0.800
60.4866 0.734
60.5031 0.696
60.5197 0.893
60.5362 0.855
60.5528 0.795
60.5693 0.888
60.5859 0.860
60.6024 1.112
60.6190 1.129
60.6355 1.052
60.6520 1.140
60.6686 1.167
60.6851 1.222
60.7017 1.441
60.7182 1.474
60.7348 1.584
60.7513 1.885
60.7679 2.159
60.7844 2.356
60.8010 2.466
60.8175 2.663
60.8340 2.537
60.8506 2.838
60.8671 2.948
60.8837 3.162
60.9002 3.452
60.9168 3.885
60.9333 4.038
60.9499 4.186
60.9664 4.000
60.9830 4.011
60.9995 3.436
61.0160 2.981
61.0326 2.592
61.0491 2.159
61.0657 2.290
61.0822 2.016
61.0988 2.093
61.1153 2.126
61.1319 2.066
61.1484 2.011
61.1650 1.523
61.1815 1.375
61.1980 1.233
61.2146 1.074
61.2311 0.899
61.2477 0.970
61.2642 0.679
61.2808 0.718
61.2973 0.789
61.3139 0.592
61.3304 0.745
61.3470 0.641
61.3635 0.701
61.3800 0.734
61.3966 0.597
61.4131 0.668
61.4297 0.663
61.4462 0.679
61.4628 0.581
61.4793 0.553
61.4959 0.597
61.5124 0.581
61.5290 0.740
61.5455 0.663
61.5620 0.603
61.5786 0.592
61.5951 0.652
61.6117 0.647
61.6282 0.586
61.6448 0.668
61.6613 0.701
61.6779 0.636
61.6944 0.542
61.7110 0.603
61.7275 0.647
61.7440 0.630
61.7606 0.597
61.7771 0.619
61.7937 0.652
61.8102 0.636
61.8268 0.625
61.8433 0.630
61.8599 0.663
61.8764 0.597
61.8930 0.581
61.9095 0.658
61.9260 0.663
61.9426 0.548
61.9591 0.526
61.9757 0.636
61.9922 0.614
62.0088 0.608
62.0253 0.564
62.0419 0.537
62.0584 0.641
62.0750 0.625
62.0915 0.603
62.1080 0.493
62.1246 0.636
62.1411 0.597
62.1577 0.597
62.1742 0.460
62.1908 0.647
62.2073 0.581
62.2239 0.581
62.2404 0.553
62.2570 0.575
62.2735 0.581
62.2900 0.575
62.3066 0.553
62.3231 0.636
62.3397 0.553
62.3562 0.532
62.3728 0.532
62.3893 0.526
62.4059 0.625
62.4224 0.521
62.4390 0.515
62.4555 0.570
62.4720 0.636
62.4886 0.542
62.5051 0.674
62.5217 0.477
62.5382 0.499
62.5548 0.592
62.5713 0.438
62.5879 0.608
62.6044 0.526
62.6210 0.625
62.6375 0.592
62.6540 0.581
62.6706 0.521
62.6871 0.471
62.7037 0.548
62.7202 0.542
62.7368 0.482
62.7533 0.581
62.7699 0.586
62.7864 0.586
62.8029 0.515
62.8195 0.526
62.8360 0.707
62.8526 0.537
62.8691 0.411
62.8857 0.477
62.9022 0.679
62.9188 0.449
62.9353 0.553
62.9519 0.581
62.9684 0.641
62.9849 0.564
63.0015 0.515
63.0180 0.488
63.0346 0.608
63.0511 0.553
63.0677 0.499
63.0842 0.466
63.1008 0.553
63.1173 0.449
63.1339 0.570
63.1504 0.504
63.1669 0.570
63.1835 0.542
63.2000 0.608
63.2166 0.586
63.2331 0.526
63.2497 0.564
63.2662 0.614
63.2828 0.532
63.2993 0.542
63.3159 0.608
63.3324 0.559
63.3489 0.603
63.3655 0.586
63.3820 0.564
63.3986 0.570
63.4151 0.630
63.4317 0.542
63.4482 0.488
63.4648 0.575
63.4813 0.510
63.4979 0.586
63.5144 0.532
63.5309 0.526
63.5475 0.658
63.5640 0.652
63.5806 0.553
63.5971 0.532
63.6137 0.614
63.6302 0.636
63.6468 0.707
63.6633 0.647
63.6799 0.515
63.6964 0.553
63.7129 0.619
63.7295 0.542
63.7460 0.630
63.7626 0.570
63.7791 0.532
63.7957 0.564
63.8122 0.581
63.8288 0.603
63.8453 0.701
63.8619 0.586
63.8784 0.652
63.8949 0.636
63.9115 0.592
63.9280 0.493
63.9446 0.630
63.9611 0.636
63.9777 0.690
63.9942 0.575
64.0108 0.619
64.0273 0.559
64.0439 0.515
64.0604 0.542
64.0769 0.701
64.0935 0.586
64.1100 0.455
64.1266 0.570
64.1431 0.668
64.1597 0.575
64.1762 0.553
64.1928 0.575
64.2093 0.521
64.2259 0.614
64.2424 0.592
64.2589 0.537
64.2755 0.581
64.2920 0.559
64.3086 0.488
64.3251 0.460
64.3417 0.636
64.3582 0.603
64.3748 0.581
64.3913 0.510
64.4079 0.592
64.4244 0.608
64.4409 0.603
64.4575 0.586
64.4740 0.548
64.4906 0.526
64.5071 0.504
64.5237 0.548
64.5402 0.608
64.5568 0.564
64.5733 0.668
64.5899 0.542
64.6064 0.526
64.6229 0.586
64.6395 0.586
64.6560 0.581
64.6726 0.564
64.6891 0.542
64.7057 0.658
64.7222 0.597
64.7388 0.619
64.7553 0.614
64.7719 0.630
64.7884 0.537
64.8049 0.619
64.8215 0.630
64.8380 0.641
64.8546 0.597
64.8711 0.542
64.8877 0.614
64.9042 0.608
64.9208 0.630
64.9373 0.641
64.9539 0.658
64.9704 0.510
64.9869 0.740
65.0035 0.641
65.0200 0.482
65.0366 0.690
65.0531 0.493
65.0697 0.718
65.0862 0.729
65.1028 0.603
65.1193 0.707
65.1359 0.707
65.1524 0.658
65.1689 0.641
65.1855 0.603
65.2020 0.581
65.2186 0.690
65.2351 0.816
65.2517 0.619
65.2682 0.630
65.2848 0.778
65.3013 0.597
65.3179 0.685
65.3344 0.614
65.3509 0.668
65.3675 0.762
65.3840 0.767
65.4006 0.636
65.4171 0.740
65.4337 0.690
65.4502 0.762
65.4668 0.668
65.4833 0.778
65.4999 0.701
65.5164 0.795
65.5329 0.707
65.5495 0.773
65.5660 0.844
65.5826 0.838
65.5991 0.795
65.6157 0.827
65.6322 0.915
65.6488 0.827
65.6653 0.756
65.6818 1.014
65.6984 1.118
65.7149 0.992
65.7315 1.260
65.7480 1.249
65.7646 1.359
65.7811 1.381
65.7977 1.414
65.8142 1.523
65.8308 1.529
65.8473 1.627
65.8638 1.962
65.8804 2.126
65.8969 2.099
65.9135 2.345
65.9300 2.405
65.9466 2.899
65.9631 3.184
65.9797 3.452
65.9962 4.022
66.0128 4.674
66.0293 5.523
66.0458 6.784
66.0624 7.468
66.0789 8.674
66.0955 9.573
66.1120 11.068
66.1286 12.553
66.1451 13.584
66.1617 13.441
66.1782 12.564
66.1948 10.641
66.2113 8.986
66.2278 7.545
66.2444 6.756
66.2609 6.263
66.2775 6.564
66.2940 7.068
66.3106 6.805
66.3271 7.047
66.3437 7.134
66.3602 6.685
66.3768 5.682
66.3933 4.170
66.4098 3.633
66.4264 2.833
66.4429 2.214
66.4595 1.967
66.4760 1.852
66.4926 1.627
66.5091 1.386
66.5257 1.249
66.5422 1.052
66.5588 1.118
66.5753 1.195
66.5918 0.953
66.6084 1.090
66.6249 0.910
66.6415 0.981
66.6580 0.937
66.6746 0.893
66.6911 1.014
66.7077 0.932
66.7242 0.811
66.7408 0.773
66.7573 0.849
66.7738 0.833
66.7904 0.904
66.8069 0.860
66.8235 0.734
66.8400 0.800
66.8566 0.910
66.8731 0.871
66.8897 0.756
66.9062 0.822
66.9228 0.822
66.9393 0.767
66.9558 0.899
66.9724 0.800
66.9889 0.827
67.0055 0.745
67.0220 0.679
67.0386 0.723
67.0551 0.882
67.0717 0.849
67.0882 0.827
67.1048 0.882
67.1213 0.827
67.1378 0.849
67.1544 0.904
67.1709 0.718
67.1875 0.893
67.2040 0.827
67.2206 1.025
67.2371 0.904
67.2537 0.860
67.2702 1.063
67.2868 0.964
67.3033 1.118
67.3198 1.085
67.3364 1.058
67.3529 1.025
67.3695 1.189
67.3860 1.162
67.4026 1.315
67.4191 1.485
67.4357 1.392
67.4522 1.611
67.4688 1.529
67.4853 1.666
67.5018 1.912
67.5184 2.044
67.5349 2.033
67.5515 2.296
67.5680 2.608
67.5846 3.041
67.6011 3.293
67.6177 3.441
67.6342 4.219
67.6508 4.636
67.6673 5.304
67.6838 5.918
67.7004 7.008
67.7169 7.764
67.7335 9.775
67.7500 10.740
67.7666 13.052
67.7831 14.833
67.7997 16.592
67.8162 18.685
67.8328 19.353
67.8493 19.759
67.8658 18.855
67.8824 15.759
67.8989 12.970
67.9155 10.800
67.9320 9.408
67.9486 8.942
67.9651 8.866
67.9817 9.458
67.9982 9.430
68.0148 10.422
68.0313 9.912
68.0478 9.748
68.0644 8.860
68.0809 6.942
68.0975 5.419
68.1140 4.153
68.1306 3.238
68.1471 2.849
68.1637 2.318
68.1802 1.704
68.1968 1.732
68.2133 1.474
68.2298 1.414
68.2464 1.353
68.2629 1.200
68.2795 1.173
68.2960 1.085
68.3126 1.041
68.3291 0.866
68.3457 0.921
68.3622 0.816
68.3787 0.937
68.3953 0.685
68.4118 0.893
68.4284 0.827
68.4449 0.888
68.4615 0.674
68.4780 0.893
68.4946 0.762
68.5111 0.701
68.5277 0.784
68.5442 0.795
68.5607 0.751
68.5773 0.636
68.5938 0.608
68.6104 0.762
68.6269 0.690
68.6435 0.690
68.6600 0.745
68.6766 0.701
68.6931 0.745
68.7097 0.570
68.7262 0.745
68.7427 0.701
68.7593 0.636
68.7758 0.729
68.7924 0.668
68.8089 0.625
68.8255 0.685
68.8420 0.603
68.8586 0.608
68.8751 0.619
68.8917 0.696
68.9082 0.597
68.9247 0.581
68.9413 0.707
68.9578 0.581
68.9744 0.619
68.9909 0.614
69.0075 0.619
69.0240 0.767
69.0406 0.559
69.0571 0.553
69.0737 0.636
69.0902 0.515
69.1067 0.608
69.1233 0.674
69.1398 0.460
69.1564 0.570
69.1729 0.614
69.1895 0.636
69.2060 0.614
69.2226 0.537
69.2391 0.553
69.2557 0.603
69.2722 0.575
69.2887 0.542
69.3053 0.603
69.3218 0.515
69.3384 0.592
69.3549 0.515
69.3715 0.674
69.3880 0.581
69.4046 0.658
69.4211 0.581
69.4377 0.521
69.4542 0.625
69.4707 0.570
69.4873 0.526
69.5038 0.592
69.5204 0.553
69.5369 0.575
69.5535 0.652
69.5700 0.553
69.5866 0.570
69.6031 0.559
69.6197 0.504
69.6362 0.608
69.6527 0.592
69.6693 0.636
69.6858 0.526
69.7024 0.597
69.7189 0.674
69.7355 0.625
69.7520 0.603
69.7686 0.564
69.7851 0.559
69.8017 0.548
69.8182 0.542
69.8347 0.723
69.8513 0.603
69.8678 0.608
69.8844 0.685
69.9009 0.652
69.9175 0.696
69.9340 0.674
69.9506 0.822
69.9671 0.663
69.9837 0.767
70.0002 0.778
