'Id: "" Comment: "" Operator: "Administrator" Anode: "Cu" Scantype: "Locked Coupled" TimePerStep: "182.5" X: "0" Y: "0" Z: "0" 
20.0000 2.384
20.0165 2.400
20.0331 2.542
20.0496 2.367
20.0662 2.400
20.0827 2.395
20.0993 2.362
20.1158 2.312
20.1324 2.340
20.1489 2.608
20.1655 2.225
20.1820 2.356
20.1985 2.148
20.2151 2.236
20.2316 2.427
20.2482 2.466
20.2647 2.537
20.2813 2.060
20.2978 2.526
20.3144 2.252
20.3309 2.466
20.3475 2.515
20.3640 2.422
20.3805 2.247
20.3971 2.548
20.4136 2.455
20.4302 2.137
20.4467 2.301
20.4633 2.362
20.4798 2.405
20.4964 2.137
20.5129 2.099
20.5295 2.416
20.5460 2.241
20.5625 2.159
20.5791 2.290
20.5956 2.427
20.6122 2.433
20.6287 2.312
20.6453 2.307
20.6618 2.301
20.6784 2.153
20.6949 2.367
20.7115 2.241
20.7280 2.279
20.7445 2.093
20.7611 2.175
20.7776 2.356
20.7942 2.137
20.8107 2.088
20.8273 2.214
20.8438 2.384
20.8604 2.159
20.8769 2.088
20.8935 2.247
20.9100 2.203
20.9265 2.312
20.9431 2.148
20.9596 2.186
20.9762 2.268
20.9927 2.367
21.0093 2.263
21.0258 2.181
21.0424 2.290
21.0589 2.340
21.0755 2.318
21.0920 2.290
21.1085 2.384
21.1251 2.323
21.1416 2.268
21.1582 2.159
21.1747 2.126
21.1913 2.307
21.2078 2.038
21.2244 2.164
21.2409 2.362
21.2575 2.214
21.2740 2.192
21.2905 2.066
21.3071 2.373
21.3236 2.290
21.3402 2.323
21.3567 2.230
21.3733 2.197
21.3898 2.153
21.4064 2.110
21.4229 2.082
21.4394 2.137
21.4560 2.203
21.4725 2.175
21.4891 2.005
21.5056 2.088
21.5222 2.263
21.5387 2.252
21.5553 2.274
21.5718 2.044
21.5884 2.263
21.6049 2.011
21.6214 1.951
21.6380 2.274
21.6545 2.241
21.6711 2.049
21.6876 2.077
21.7042 2.170
21.7207 2.230
21.7373 2.279
21.7538 2.159
21.7704 2.164
21.7869 1.978
21.8034 2.142
21.8200 2.077
21.8365 2.312
21.8531 2.142
21.8696 2.175
21.8862 2.203
21.9027 2.049
21.9193 2.208
21.9358 2.247
21.9524 2.005
21.9689 2.230
21.9854 2.082
22.0020 2.192
22.0185 2.126
22.0351 2.247
22.0516 1.962
22.0682 2.033
22.0847 2.192
22.1013 2.044
22.1178 2.000
22.1344 1.918
22.1509 2.088
22.1674 1.995
22.1840 2.099
22.2005 2.219
22.2171 2.132
22.2336 1.819
22.2502 2.247
22.2667 2.121
22.2833 2.071
22.2998 1.945
22.3164 2.121
22.3329 2.192
22.3494 2.153
22.3660 1.962
22.3825 1.836
22.3991 2.027
22.4156 2.049
22.4322 2.093
22.4487 2.005
22.4653 1.912
22.4818 2.027
22.4984 1.967
22.5149 1.962
22.5314 2.110
22.5480 2.016
22.5645 1.874
22.5811 1.923
22.5976 2.022
22.6142 1.830
22.6307 1.989
22.6473 2.104
22.6638 1.973
22.6804 1.759
22.6969 1.978
22.7134 1.978
22.7300 2.027
22.7465 2.137
22.7631 1.951
22.7796 2.022
22.7962 1.847
22.8127 1.863
22.8293 1.978
22.8458 1.847
22.8624 1.918
22.8789 2.164
22.8954 1.995
22.9120 1.995
22.9285 2.066
22.9451 2.126
22.9616 2.033
22.9782 2.022
22.9947 2.236
23.0113 2.104
23.0278 1.945
23.0444 1.885
23.0609 1.967
23.0774 2.000
23.0940 2.038
23.1105 2.060
23.1271 2.115
23.1436 1.967
23.1602 1.973
23.1767 1.923
23.1933 1.814
23.2098 1.814
23.2264 2.000
23.2429 1.951
23.2594 2.208
23.2760 1.940
23.2925 1.967
23.3091 1.907
23.3256 1.907
23.3422 1.978
23.3587 1.912
23.3753 2.011
23.3918 1.792
23.4084 2.038
23.4249 1.874
23.4414 1.792
23.4580 2.044
23.4745 1.863
23.4911 1.890
23.5076 2.027
23.5242 1.885
23.5407 1.710
23.5573 1.879
23.5738 1.874
23.5904 2.022
23.6069 1.858
23.6234 2.011
23.6400 2.049
23.6565 1.764
23.6731 1.956
23.6896 1.803
23.7062 1.715
23.7227 1.934
23.7393 1.841
23.7558 2.115
23.7724 1.940
23.7889 1.858
23.8054 1.923
23.8220 2.137
23.8385 2.011
23.8551 1.852
23.8716 2.022
23.8882 2.060
23.9047 2.077
23.9213 1.940
23.9378 2.005
23.9544 1.803
23.9709 2.060
23.9874 2.060
24.0040 2.126
24.0205 2.241
24.0371 2.077
24.0536 1.995
24.0702 2.055
24.0867 2.334
24.1033 2.258
24.1198 2.181
24.1364 2.225
24.1529 2.181
24.1694 2.416
24.1860 2.159
24.2025 2.301
24.2191 2.449
24.2356 2.405
24.2522 2.236
24.2687 2.521
24.2853 2.312
24.3018 2.318
24.3183 2.236
24.3349 2.312
24.3514 2.581
24.3680 2.460
24.3845 2.241
24.4011 2.471
24.4176 2.559
24.4342 2.488
24.4507 2.384
24.4673 2.663
24.4838 2.411
24.5003 2.811
24.5169 2.460
24.5334 2.592
24.5500 2.581
24.5665 2.592
24.5831 2.636
24.5996 2.362
24.6162 2.488
24.6327 2.619
24.6493 2.504
24.6658 2.652
24.6823 2.553
24.6989 2.553
24.7154 2.679
24.7320 2.811
24.7485 2.904
24.7651 2.937
24.7816 2.537
24.7982 2.718
24.8147 2.679
24.8313 2.740
24.8478 2.937
24.8643 2.608
24.8809 2.586
24.8974 2.778
24.9140 2.405
24.9305 2.696
24.9471 2.729
24.9636 2.838
24.9802 2.510
24.9967 2.707
25.0133 2.712
25.0298 2.614
25.0463 2.882
25.0629 2.773
25.0794 2.784
25.0960 2.778
25.1125 3.074
25.1291 3.047
25.1456 3.162
25.1622 3.063
25.1787 3.414
25.1953 3.660
25.2118 3.808
25.2283 4.099
25.2449 4.055
25.2614 4.586
25.2780 4.948
25.2945 5.485
25.3111 6.164
25.3276 7.227
25.3442 8.367
25.3607 9.951
25.3773 12.132
25.3938 15.737
25.4103 19.178
25.4269 22.992
25.4434 28.981
25.4600 33.715
25.4765 36.542
25.4931 36.395
25.5096 33.551
25.5262 30.603
25.5427 25.830
25.5593 20.712
25.5758 16.433
25.5923 12.038
25.6089 8.636
25.6254 7.118
25.6420 5.589
25.6585 4.504
25.6751 4.175
25.6916 3.901
25.7082 3.403
25.7247 3.167
25.7413 3.063
25.7578 2.860
25.7743 3.052
25.7909 2.866
25.8074 2.723
25.8240 2.515
25.8405 2.800
25.8571 2.696
25.8736 2.378
25.8902 2.663
25.9067 2.356
25.9233 2.625
25.9398 2.493
25.9563 2.521
25.9729 2.411
25.9894 2.323
26.0060 2.395
26.0225 2.395
26.0391 2.214
26.0556 2.279
26.0722 2.477
26.0887 2.296
26.1053 2.345
26.1218 2.170
26.1383 2.236
26.1549 2.104
26.1714 2.148
26.1880 2.318
26.2045 2.521
26.2211 2.192
26.2376 2.411
26.2542 2.077
26.2707 2.016
26.2873 2.334
26.3038 2.345
26.3203 2.082
26.3369 2.082
26.3534 2.175
26.3700 2.225
26.3865 2.153
26.4031 2.115
26.4196 2.170
26.4362 2.126
26.4527 2.066
26.4693 2.016
26.4858 2.142
26.5023 2.192
26.5189 2.164
26.5354 2.252
26.5520 2.055
26.5685 2.318
26.5851 1.989
26.6016 1.901
26.6182 2.027
26.6347 2.137
26.6513 2.055
26.6678 2.121
26.6843 2.099
26.7009 2.104
26.7174 2.104
26.7340 2.022
26.7505 2.077
26.7671 1.962
26.7836 2.049
26.8002 1.967
26.8167 1.973
26.8333 2.093
26.8498 1.973
26.8663 2.038
26.8829 1.797
26.8994 2.132
26.9160 1.819
26.9325 1.797
26.9491 1.923
26.9656 1.951
26.9822 1.984
26.9987 1.896
27.0152 1.863
27.0318 2.082
27.0483 1.814
27.0649 1.962
27.0814 1.901
27.0980 1.808
27.1145 1.934
27.1311 1.912
27.1476 1.819
27.1642 1.808
27.1807 2.049
27.1972 1.984
27.2138 1.868
27.2303 1.825
27.2469 1.934
27.2634 1.940
27.2800 1.660
27.2965 1.825
27.3131 1.912
27.3296 1.858
27.3462 1.732
27.3627 1.874
27.3792 1.825
27.3958 1.984
27.4123 1.912
27.4289 1.814
27.4454 1.940
27.4620 1.923
27.4785 1.967
27.4951 1.797
27.5116 1.792
27.5282 1.978
27.5447 1.879
27.5612 1.901
27.5778 1.918
27.5943 1.792
27.6109 1.589
27.6274 1.759
27.6440 1.721
27.6605 2.055
27.6771 1.584
27.6936 1.814
27.7102 1.995
27.7267 1.721
27.7432 1.748
27.7598 1.819
27.7763 1.803
27.7929 1.726
27.8094 1.775
27.8260 1.841
27.8425 1.967
27.8591 1.841
27.8756 1.759
27.8922 1.890
27.9087 1.682
27.9252 1.858
27.9418 1.671
27.9583 1.885
27.9749 1.792
27.9914 1.803
28.0080 1.715
28.0245 1.879
28.0411 1.808
28.0576 1.775
28.0742 1.551
28.0907 1.595
28.1072 1.562
28.1238 1.732
28.1403 1.764
28.1569 1.671
28.1734 1.638
28.1900 1.759
28.2065 1.710
28.2231 1.704
28.2396 1.726
28.2562 1.770
28.2727 1.633
28.2892 1.622
28.3058 1.425
28.3223 1.408
28.3389 1.611
28.3554 1.595
28.3720 1.655
28.3885 1.677
28.4051 1.611
28.4216 1.518
28.4382 1.616
28.4547 1.589
28.4712 1.638
28.4878 1.463
28.5043 1.507
28.5209 1.704
28.5374 1.523
28.5540 1.578
28.5705 1.616
28.5871 1.545
28.6036 1.518
28.6202 1.622
28.6367 1.589
28.6532 1.638
28.6698 1.458
28.6863 1.507
28.7029 1.370
28.7194 1.781
28.7360 1.545
28.7525 1.633
28.7691 1.501
28.7856 1.605
28.8022 1.562
28.8187 1.468
28.8352 1.556
28.8518 1.595
28.8683 1.556
28.8849 1.479
28.9014 1.523
28.9180 1.671
28.9345 1.370
28.9511 1.688
28.9676 1.578
28.9842 1.479
29.0007 1.562
29.0172 1.441
29.0338 1.381
29.0503 1.501
29.0669 1.408
29.0834 1.611
29.1000 1.523
29.1165 1.638
29.1331 1.375
29.1496 1.649
29.1662 1.414
29.1827 1.419
29.1992 1.458
29.2158 1.397
29.2323 1.419
29.2489 1.408
29.2654 1.468
29.2820 1.364
29.2985 1.348
29.3151 1.403
29.3316 1.397
29.3482 1.474
29.3647 1.501
29.3812 1.474
29.3978 1.397
29.4143 1.534
29.4309 1.468
29.4474 1.441
29.4640 1.381
29.4805 1.490
29.4971 1.299
29.5136 1.348
29.5302 1.474
29.5467 1.359
29.5632 1.342
29.5798 1.315
29.5963 1.458
29.6129 1.479
29.6294 1.468
29.6460 1.315
29.6625 1.408
29.6791 1.386
29.6956 1.304
29.7121 1.436
29.7287 1.551
29.7452 1.195
29.7618 1.523
29.7783 1.370
29.7949 1.392
29.8114 1.348
29.8280 1.479
29.8445 1.227
29.8611 1.293
29.8776 1.364
29.8941 1.244
29.9107 1.364
29.9272 1.315
29.9438 1.260
29.9603 1.414
29.9769 1.332
29.9934 1.342
30.0100 1.266
30.0265 1.425
30.0431 1.304
30.0596 1.205
30.0761 1.458
30.0927 1.233
30.1092 1.321
30.1258 1.304
30.1423 1.490
30.1589 1.397
30.1754 1.326
30.1920 1.282
30.2085 1.211
30.2251 1.288
30.2416 1.173
30.2581 1.227
30.2747 1.326
30.2912 1.353
30.3078 1.249
30.3243 1.315
30.3409 1.342
30.3574 1.430
30.3740 1.271
30.3905 1.266
30.4071 1.474
30.4236 1.227
30.4401 1.178
30.4567 1.200
30.4732 1.118
30.4898 1.260
30.5063 1.211
30.5229 1.277
30.5394 1.332
30.5560 0.981
30.5725 1.266
30.5891 1.211
30.6056 1.288
30.6221 1.211
30.6387 1.271
30.6552 1.310
30.6718 1.255
30.6883 1.288
30.7049 1.140
30.7214 1.178
30.7380 1.441
30.7545 1.359
30.7711 1.348
30.7876 1.321
30.8041 1.353
30.8207 1.288
30.8372 1.151
30.8538 1.167
30.8703 1.310
30.8869 1.288
30.9034 1.222
30.9200 1.238
30.9365 1.211
30.9531 1.162
30.9696 1.260
30.9861 1.151
31.0027 1.266
31.0192 1.271
31.0358 1.216
31.0523 1.162
31.0689 1.414
31.0854 1.293
31.1020 1.096
31.1185 1.227
31.1351 1.167
31.1516 1.408
31.1681 1.167
31.1847 1.200
31.2012 1.255
31.2178 1.260
31.2343 1.211
31.2509 1.118
31.2674 1.162
31.2840 1.178
31.3005 1.145
31.3171 1.288
31.3336 1.200
31.3501 1.189
31.3667 1.255
31.3832 1.178
31.3998 1.101
31.4163 1.216
31.4329 1.129
31.4494 1.227
31.4660 1.299
31.4825 1.233
31.4991 1.244
31.5156 1.321
31.5321 1.255
31.5487 1.156
31.5652 1.227
31.5818 1.047
31.5983 1.129
31.6149 1.260
31.6314 1.178
31.6480 1.222
31.6645 1.101
31.6811 1.101
31.6976 1.255
31.7141 1.008
31.7307 1.238
31.7472 1.134
31.7638 0.992
31.7803 1.173
31.7969 0.997
31.8134 1.156
31.8300 1.112
31.8465 1.036
31.8631 1.008
31.8796 1.249
31.8961 1.085
31.9127 1.167
31.9292 1.244
31.9458 1.041
31.9623 1.151
31.9789 1.178
31.9954 1.079
32.0120 1.151
32.0285 0.975
32.0451 1.058
32.0616 1.129
32.0781 1.195
32.0947 1.173
32.1112 1.079
32.1278 1.008
32.1443 1.041
32.1609 1.195
32.1774 1.090
32.1940 1.211
32.2105 1.085
32.2271 1.047
32.2436 1.260
32.2601 1.227
32.2767 1.123
32.2932 1.047
32.3098 1.003
32.3263 1.058
32.3429 1.156
32.3594 1.178
32.3760 1.063
32.3925 1.233
32.4091 1.079
32.4256 1.107
32.4421 1.014
32.4587 1.189
32.4752 1.123
32.4918 1.101
32.5083 1.227
32.5249 1.107
32.5414 1.025
32.5580 1.085
32.5745 1.030
32.5910 1.167
32.6076 1.085
32.6241 1.090
32.6407 1.162
32.6572 1.019
32.6738 1.090
32.6903 1.216
32.7069 1.222
32.7234 1.123
32.7400 1.173
32.7565 1.085
32.7730 1.090
32.7896 1.063
32.8061 1.063
32.8227 1.145
32.8392 1.184
32.8558 1.107
32.8723 1.227
32.8889 1.195
32.9054 1.134
32.9220 1.129
32.9385 1.090
32.9550 0.964
32.9716 1.052
32.9881 1.068
33.0047 1.145
33.0212 1.096
33.0378 0.899
33.0543 1.151
33.0709 1.008
33.0874 1.255
33.1040 1.112
33.1205 1.140
33.1370 1.068
33.1536 1.293
33.1701 1.074
33.1867 1.063
33.2032 0.997
33.2198 1.184
33.2363 1.090
33.2529 1.036
33.2694 1.014
33.2860 1.162
33.3025 1.025
33.3190 1.085
33.3356 1.227
33.3521 1.233
33.3687 1.156
33.3852 1.063
33.4018 1.074
33.4183 1.030
33.4349 1.052
33.4514 0.959
33.4680 1.151
33.4845 1.079
33.5010 1.030
33.5176 1.129
33.5341 0.981
33.5507 1.222
33.5672 1.068
33.5838 1.074
33.6003 1.041
33.6169 1.079
33.6334 1.266
33.6500 1.014
33.6665 1.162
33.6830 1.200
33.6996 1.140
33.7161 0.986
33.7327 1.189
33.7492 1.173
33.7658 1.282
33.7823 1.195
33.7989 1.326
33.8154 1.205
33.8320 1.173
33.8485 1.282
33.8650 1.364
33.8816 1.151
33.8981 1.260
33.9147 1.310
33.9312 1.414
33.9478 1.353
33.9643 1.244
33.9809 1.216
33.9974 1.326
34.0140 1.293
34.0305 1.364
34.0470 1.353
34.0636 1.310
34.0801 1.156
34.0967 1.458
34.1132 1.370
34.1298 1.255
34.1463 1.419
34.1629 1.271
34.1794 1.310
34.1960 1.381
34.2125 1.342
34.2290 1.496
34.2456 1.288
34.2621 1.299
34.2787 1.271
34.2952 1.249
34.3118 1.381
34.3283 1.551
34.3449 1.501
34.3614 1.359
34.3780 1.419
34.3945 1.441
34.4110 1.216
34.4276 1.518
34.4441 1.562
34.4607 1.688
34.4772 1.567
34.4938 1.660
34.5103 1.458
34.5269 1.693
34.5434 1.885
34.5600 1.786
34.5765 1.995
34.5930 2.016
34.6096 2.268
34.6261 2.208
34.6427 2.411
34.6592 2.515
34.6758 2.822
34.6923 2.915
34.7089 2.844
34.7254 3.836
34.7420 4.148
34.7585 4.236
34.7750 5.118
34.7916 5.359
34.8081 6.712
34.8247 7.595
34.8412 8.663
34.8578 10.395
34.8743 12.811
34.8909 15.348
34.9074 18.405
34.9240 22.932
34.9405 29.145
34.9570 35.381
34.9736 42.279
34.9901 48.115
35.0067 49.496
35.0232 47.485
35.0398 42.570
35.0563 35.847
35.0729 32.849
35.0894 30.044
35.1060 26.186
35.1225 20.438
35.1390 15.430
35.1556 11.200
35.1721 8.016
35.1887 5.748
35.2052 4.581
35.2218 3.907
35.2383 3.627
35.2549 3.244
35.2714 2.718
35.2879 2.104
35.3045 2.323
35.3210 2.148
35.3376 2.022
35.3541 2.132
35.3707 1.759
35.3872 1.847
35.4038 1.660
35.4203 1.710
35.4369 1.485
35.4534 1.419
35.4699 1.573
35.4865 1.622
35.5030 1.408
35.5196 1.392
35.5361 1.447
35.5527 1.458
35.5692 1.310
35.5858 1.353
35.6023 1.441
35.6189 1.277
35.6354 1.299
35.6519 1.375
35.6685 1.370
35.6850 1.200
35.7016 1.238
35.7181 1.299
35.7347 1.260
35.7512 1.277
35.7678 1.326
35.7843 1.337
35.8009 1.140
35.8174 1.282
35.8339 1.156
35.8505 1.151
35.8670 1.167
35.8836 1.058
35.9001 1.101
35.9167 1.151
35.9332 1.129
35.9498 1.079
35.9663 1.107
35.9829 1.162
35.9994 1.255
36.0159 1.140
36.0325 1.118
36.0490 1.205
36.0656 1.118
36.0821 1.173
36.0987 1.249
36.1152 1.085
36.1318 1.014
36.1483 0.975
36.1649 1.047
36.1814 1.233
36.1979 1.118
36.2145 1.205
36.2310 1.052
36.2476 1.249
36.2641 1.145
36.2807 1.184
36.2972 0.986
36.3138 1.052
36.3303 1.216
36.3469 1.096
36.3634 1.244
36.3799 1.178
36.3965 1.096
36.4130 1.277
36.4296 1.238
36.4461 1.266
36.4627 1.140
36.4792 1.184
36.4958 1.205
36.5123 1.244
36.5289 1.233
36.5454 1.140
36.5619 1.178
36.5785 1.255
36.5950 1.025
36.6116 1.030
36.6281 1.112
36.6447 1.249
36.6612 1.090
36.6778 1.178
36.6943 1.090
36.7109 1.195
36.7274 1.266
36.7439 1.173
36.7605 1.134
36.7770 1.216
36.7936 1.266
36.8101 1.079
36.8267 1.227
36.8432 1.195
36.8598 1.205
36.8763 1.238
36.8929 1.047
36.9094 1.096
36.9259 1.118
36.9425 1.184
36.9590 1.145
36.9756 1.315
36.9921 1.063
37.0087 1.249
37.0252 1.178
37.0418 1.195
37.0583 1.271
37.0749 1.266
37.0914 1.326
37.1079 1.282
37.1245 1.397
37.1410 1.282
37.1576 1.173
37.1741 1.414
37.1907 1.315
37.2072 1.222
37.2238 1.403
37.2403 1.452
37.2569 1.474
37.2734 1.584
37.2899 1.605
37.3065 1.830
37.3230 1.808
37.3396 2.088
37.3561 1.907
37.3727 2.121
37.3892 2.427
37.4058 2.603
37.4223 2.877
37.4389 3.529
37.4554 3.808
37.4719 4.553
37.4885 5.167
37.5050 5.934
37.5216 7.315
37.5381 8.685
37.5547 10.953
37.5712 13.205
37.5878 15.288
37.6043 17.825
37.6209 20.049
37.6374 19.775
37.6539 18.389
37.6705 15.682
37.6870 14.230
37.7036 12.499
37.7201 11.737
37.7367 10.082
37.7532 8.477
37.7698 6.718
37.7863 4.975
37.8029 3.375
37.8194 2.838
37.8359 2.362
37.8525 2.236
37.8690 2.033
37.8856 1.825
37.9021 1.704
37.9187 1.671
37.9352 1.485
37.9518 1.496
37.9683 1.364
37.9848 1.233
38.0014 1.332
38.0179 1.282
38.0345 1.195
38.0510 1.140
38.0676 1.271
38.0841 1.222
38.1007 1.156
38.1172 1.173
38.1338 1.096
38.1503 0.959
38.1668 1.151
38.1834 1.025
38.1999 1.129
38.2165 1.079
38.2330 0.849
38.2496 0.975
38.2661 1.123
38.2827 1.189
38.2992 1.030
38.3158 1.030
38.3323 0.997
38.3488 1.008
38.3654 1.101
38.3819 0.981
38.3985 1.014
38.4150 1.096
38.4316 1.030
38.4481 1.079
38.4647 1.036
38.4812 0.937
38.4978 1.047
38.5143 1.107
38.5308 0.860
38.5474 1.085
38.5639 0.921
38.5805 0.855
38.5970 1.074
38.6136 0.997
38.6301 1.030
38.6467 1.068
38.6632 0.849
38.6798 1.003
38.6963 1.014
38.7128 1.195
38.7294 1.047
38.7459 0.953
38.7625 1.058
38.7790 0.921
38.7956 1.151
38.8121 1.068
38.8287 1.096
38.8452 1.008
38.8618 1.096
38.8783 1.052
38.8948 0.904
38.9114 0.997
38.9279 0.964
38.9445 0.882
38.9610 1.003
38.9776 1.112
38.9941 0.953
39.0107 1.047
39.0272 0.975
39.0438 0.893
39.0603 0.926
39.0768 0.888
39.0934 0.986
39.1099 0.992
39.1265 0.992
39.1430 0.986
39.1596 0.904
39.1761 0.800
39.1927 0.860
39.2092 0.948
39.2258 0.751
39.2423 1.030
39.2588 1.003
39.2754 0.948
39.2919 0.899
39.3085 0.932
39.3250 0.986
39.3416 0.893
39.3581 1.063
39.3747 0.816
39.3912 0.970
39.4078 0.811
39.4243 1.030
39.4408 0.970
39.4574 0.860
39.4739 0.838
39.4905 0.942
39.5070 0.910
39.5236 0.948
39.5401 0.652
39.5567 0.849
39.5732 0.932
39.5898 0.718
39.6063 0.778
39.6228 0.844
39.6394 0.866
39.6559 0.964
39.6725 0.888
39.6890 0.959
39.7056 0.866
39.7221 0.866
39.7387 0.805
39.7552 0.866
39.7718 0.888
39.7883 0.975
39.8048 0.964
39.8214 1.014
39.8379 0.948
39.8545 1.101
39.8710 1.079
39.8876 0.937
39.9041 0.932
39.9207 0.849
39.9372 0.882
39.9538 0.932
39.9703 0.833
39.9868 0.882
40.0034 0.959
40.0199 0.822
40.0365 0.762
40.0530 1.008
40.0696 0.893
40.0861 0.751
40.1027 0.915
40.1192 0.932
40.1358 0.866
40.1523 0.855
40.1688 0.899
40.1854 0.795
40.2019 0.690
40.2185 0.871
40.2350 0.773
40.2516 0.849
40.2681 0.888
40.2847 0.800
40.3012 0.904
40.3178 0.833
40.3343 0.904
40.3508 0.915
40.3674 0.833
40.3839 0.964
40.4005 0.882
40.4170 0.932
40.4336 0.986
40.4501 0.756
40.4667 0.959
40.4832 0.970
40.4998 0.866
40.5163 0.811
40.5328 0.784
40.5494 0.756
40.5659 0.888
40.5825 0.937
40.5990 0.838
40.6156 0.833
40.6321 0.784
40.6487 0.833
40.6652 0.910
40.6818 0.899
40.6983 0.882
40.7148 0.860
40.7314 0.751
40.7479 0.849
40.7645 0.849
40.7810 0.844
40.7976 0.953
40.8141 0.729
40.8307 0.734
40.8472 1.019
40.8637 0.921
40.8803 0.953
40.8968 0.844
40.9134 0.833
40.9299 0.871
40.9465 0.822
40.9630 0.948
40.9796 0.877
40.9961 0.838
41.0127 0.805
41.0292 0.904
41.0457 0.948
41.0623 0.866
41.0788 1.025
41.0954 0.932
41.1119 0.926
41.1285 0.866
41.1450 0.893
41.1616 0.953
41.1781 0.855
41.1947 0.899
41.2112 0.816
41.2277 0.942
41.2443 0.888
41.2608 0.926
41.2774 0.882
41.2939 0.899
41.3105 1.019
41.3270 0.838
41.3436 0.893
41.3601 0.888
41.3767 1.058
41.3932 0.964
41.4097 1.118
41.4263 1.096
41.4428 1.118
41.4594 1.370
41.4759 1.244
41.4925 1.216
41.5090 1.260
41.5256 1.195
41.5421 1.249
41.5587 1.178
41.5752 1.244
41.5917 1.173
41.6083 1.233
41.6248 1.101
41.6414 1.216
41.6579 1.266
41.6745 1.112
41.6910 1.118
41.7076 1.052
41.7241 1.123
41.7407 1.063
41.7572 1.014
41.7737 1.019
41.7903 1.041
41.8068 1.107
41.8234 1.129
41.8399 1.047
41.8565 1.041
41.8730 0.855
41.8896 0.827
41.9061 0.970
41.9227 0.948
41.9392 1.085
41.9557 1.079
41.9723 0.932
41.9888 1.096
42.0054 1.134
42.0219 1.025
42.0385 1.200
42.0550 0.866
42.0716 0.964
42.0881 1.025
42.1047 0.926
42.1212 1.101
42.1377 0.970
42.1543 1.003
42.1708 1.134
42.1874 0.975
42.2039 1.123
42.2205 1.019
42.2370 0.932
42.2536 1.096
42.2701 1.107
42.2867 1.123
42.3032 1.216
42.3197 1.227
42.3363 1.041
42.3528 1.074
42.3694 1.118
42.3859 1.019
42.4025 1.145
42.4190 1.211
42.4356 1.096
42.4521 1.200
42.4687 1.348
42.4852 1.282
42.5017 1.282
42.5183 1.375
42.5348 1.277
42.5514 1.233
42.5679 1.452
42.5845 1.370
42.6010 1.255
42.6176 1.227
42.6341 1.200
42.6507 1.501
42.6672 1.551
42.6837 1.419
42.7003 1.496
42.7168 1.638
42.7334 1.627
42.7499 2.044
42.7665 1.901
42.7830 2.110
42.7996 2.296
42.8161 2.367
42.8327 2.548
42.8492 2.866
42.8657 3.189
42.8823 3.501
42.8988 4.077
42.9154 4.471
42.9319 5.151
42.9485 5.814
42.9650 6.521
42.9816 7.951
42.9981 9.036
43.0147 11.030
43.0312 12.110
43.0477 14.542
43.0643 16.953
43.0808 20.729
43.0974 25.759
43.1139 30.827
43.1305 38.153
43.1470 43.863
43.1636 47.753
43.1801 49.370
43.1967 44.712
43.2132 38.668
43.2297 33.441
43.2463 29.540
43.2628 27.616
43.2794 27.162
43.2959 24.915
43.3125 20.674
43.3290 15.704
43.3456 11.726
43.3621 8.055
43.3787 6.104
43.3952 5.074
43.4117 3.885
43.4283 3.222
43.4448 2.981
43.4614 2.510
43.4779 2.329
43.4945 2.285
43.5110 1.858
43.5276 1.901
43.5441 1.797
43.5606 1.710
43.5772 1.567
43.5937 1.622
43.6103 1.616
43.6268 1.321
43.6434 1.233
43.6599 1.425
43.6765 1.359
43.6930 1.348
43.7096 1.156
43.7261 1.348
43.7426 1.255
43.7592 1.282
43.7757 1.205
43.7923 0.915
43.8088 1.079
43.8254 1.205
43.8419 1.156
43.8585 1.030
43.8750 1.036
43.8916 1.205
43.9081 1.189
43.9246 1.047
43.9412 0.992
43.9577 1.014
43.9743 1.047
43.9908 1.008
44.0074 0.921
44.0239 1.008
44.0405 0.937
44.0570 0.910
44.0736 0.975
44.0901 0.964
44.1066 0.915
44.1232 0.855
44.1397 0.910
44.1563 0.948
44.1728 0.953
44.1894 0.981
44.2059 0.855
44.2225 0.964
44.2390 0.959
44.2556 0.992
44.2721 0.833
44.2886 0.904
44.3052 0.932
44.3217 0.975
44.3383 0.981
44.3548 0.937
44.3714 0.882
44.3879 0.805
44.4045 0.964
44.4210 0.888
44.4376 0.866
44.4541 0.877
44.4706 0.893
44.4872 0.915
44.5037 0.849
44.5203 0.992
44.5368 0.800
44.5534 0.784
44.5699 0.773
44.5865 0.849
44.6030 0.811
44.6196 0.822
44.6361 0.795
44.6526 0.767
44.6692 0.849
44.6857 0.910
44.7023 0.844
44.7188 0.904
44.7354 0.833
44.7519 0.822
44.7685 0.773
44.7850 0.921
44.8016 0.811
44.8181 0.849
44.8346 0.805
44.8512 0.860
44.8677 0.762
44.8843 0.805
44.9008 0.800
44.9174 0.811
44.9339 0.849
44.9505 0.910
44.9670 0.773
44.9836 0.888
45.0001 0.767
45.0166 0.784
45.0332 0.762
45.0497 0.855
45.0663 0.811
45.0828 0.745
45.0994 0.630
45.1159 0.762
45.1325 0.833
45.1490 0.679
45.1656 0.910
45.1821 0.773
45.1986 0.805
45.2152 0.745
45.2317 0.948
45.2483 0.871
45.2648 0.877
45.2814 0.981
45.2979 0.811
45.3145 0.816
45.3310 0.910
45.3476 0.932
45.3641 0.723
45.3806 0.723
45.3972 0.816
45.4137 0.822
45.4303 0.756
45.4468 0.953
45.4634 0.734
45.4799 0.904
45.4965 0.811
45.5130 0.811
45.5296 0.690
45.5461 0.784
45.5626 0.778
45.5792 0.811
45.5957 0.756
45.6123 0.838
45.6288 0.701
45.6454 0.805
45.6619 0.773
45.6785 0.871
45.6950 0.893
45.7116 0.784
45.7281 0.855
45.7446 0.822
45.7612 0.871
45.7777 0.751
45.7943 0.844
45.8108 0.877
45.8274 0.888
45.8439 0.915
45.8605 0.888
45.8770 0.964
45.8936 1.008
45.9101 1.003
45.9266 1.085
45.9432 1.238
45.9597 1.342
45.9763 1.277
45.9928 1.216
46.0094 1.123
46.0259 1.249
46.0425 1.129
46.0590 1.079
46.0756 1.079
46.0921 1.008
46.1086 1.030
46.1252 1.085
46.1417 0.844
46.1583 0.932
46.1748 0.871
46.1914 0.668
46.2079 0.773
46.2245 0.805
46.2410 0.690
46.2575 0.833
46.2741 0.888
46.2906 0.740
46.3072 0.849
46.3237 0.696
46.3403 0.833
46.3568 0.877
46.3734 0.740
46.3899 0.877
46.4065 0.745
46.4230 0.701
46.4395 0.899
46.4561 0.723
46.4726 0.740
46.4892 0.690
46.5057 0.816
46.5223 0.690
46.5388 0.751
46.5554 0.784
46.5719 0.712
46.5885 0.641
46.6050 0.668
46.6215 0.658
46.6381 0.707
46.6546 0.784
46.6712 0.816
46.6877 0.668
46.7043 0.729
46.7208 0.751
46.7374 0.658
46.7539 0.838
46.7705 0.740
46.7870 0.674
46.8035 0.690
46.8201 0.778
46.8366 0.729
46.8532 0.816
46.8697 0.805
46.8863 0.778
46.9028 0.701
46.9194 0.844
46.9359 0.729
46.9525 0.756
46.9690 0.877
46.9855 0.745
47.0021 0.767
47.0186 0.844
47.0352 0.778
47.0517 0.690
47.0683 0.778
47.0848 0.668
47.1014 0.701
47.1179 0.636
47.1345 0.581
47.1510 0.762
47.1675 0.652
47.1841 0.625
47.2006 0.701
47.2172 0.767
47.2337 0.784
47.2503 0.707
47.2668 0.866
47.2834 0.647
47.2999 0.723
47.3165 0.729
47.3330 0.762
47.3495 0.756
47.3661 0.789
47.3826 0.685
47.3992 0.674
47.4157 0.740
47.4323 0.679
47.4488 0.751
47.4654 0.729
47.4819 0.745
47.4985 0.630
47.5150 0.597
47.5315 0.789
47.5481 0.800
47.5646 0.723
47.5812 0.575
47.5977 0.668
47.6143 0.597
47.6308 0.597
47.6474 0.619
47.6639 0.647
47.6805 0.701
47.6970 0.553
47.7135 0.668
47.7301 0.641
47.7466 0.729
47.7632 0.663
47.7797 0.679
47.7963 0.685
47.8128 0.734
47.8294 0.647
47.8459 0.592
47.8625 0.668
47.8790 0.805
47.8955 0.625
47.9121 0.658
47.9286 0.592
47.9452 0.734
47.9617 0.690
47.9783 0.668
47.9948 0.674
48.0114 0.668
48.0279 0.647
48.0445 0.641
48.0610 0.685
48.0775 0.619
48.0941 0.696
48.1106 0.696
48.1272 0.789
48.1437 0.630
48.1603 0.696
48.1768 0.674
48.1934 0.647
48.2099 0.762
48.2265 0.658
48.2430 0.526
48.2595 0.586
48.2761 0.581
48.2926 0.597
48.3092 0.647
48.3257 0.630
48.3423 0.575
48.3588 0.751
48.3754 0.685
48.3919 0.625
48.4085 0.630
48.4250 0.636
48.4415 0.603
48.4581 0.707
48.4746 0.685
48.4912 0.674
48.5077 0.690
48.5243 0.663
48.5408 0.668
48.5574 0.756
48.5739 0.767
48.5905 0.619
48.6070 0.619
48.6235 0.603
48.6401 0.630
48.6566 0.690
48.6732 0.712
48.6897 0.663
48.7063 0.614
48.7228 0.663
48.7394 0.690
48.7559 0.603
48.7725 0.586
48.7890 0.592
48.8055 0.696
48.8221 0.641
48.8386 0.603
48.8552 0.718
48.8717 0.696
48.8883 0.718
48.9048 0.614
48.9214 0.767
48.9379 0.685
48.9545 0.701
48.9710 0.575
48.9875 0.718
49.0041 0.575
49.0206 0.581
49.0372 0.559
49.0537 0.625
49.0703 0.723
49.0868 0.564
49.1034 0.696
49.1199 0.564
49.1364 0.685
49.1530 0.751
49.1695 0.663
49.1861 0.658
49.2026 0.625
49.2192 0.718
49.2357 0.603
49.2523 0.608
49.2688 0.674
49.2854 0.564
49.3019 0.608
49.3184 0.630
49.3350 0.630
49.3515 0.586
49.3681 0.614
49.3846 0.597
49.4012 0.701
49.4177 0.537
49.4343 0.690
49.4508 0.575
49.4674 0.597
49.4839 0.652
49.5004 0.647
49.5170 0.581
49.5335 0.630
49.5501 0.592
49.5666 0.586
49.5832 0.723
49.5997 0.663
49.6163 0.701
49.6328 0.597
49.6494 0.636
49.6659 0.614
49.6824 0.756
49.6990 0.630
49.7155 0.542
49.7321 0.592
49.7486 0.668
49.7652 0.581
49.7817 0.696
49.7983 0.712
49.8148 0.723
49.8314 0.625
49.8479 0.647
49.8644 0.537
49.8810 0.592
49.8975 0.625
49.9141 0.658
49.9306 0.679
49.9472 0.674
49.9637 0.636
49.9803 0.668
49.9968 0.652
50.0134 0.773
50.0299 0.630
50.0464 0.597
50.0630 0.740
50.0795 0.647
50.0961 0.718
50.1126 0.608
50.1292 0.663
50.1457 0.668
50.1623 0.630
50.1788 0.614
50.1954 0.668
50.2119 0.641
50.2284 0.608
50.2450 0.597
50.2615 0.636
50.2781 0.625
50.2946 0.647
50.3112 0.630
50.3277 0.647
50.3443 0.685
50.3608 0.685
50.3774 0.548
50.3939 0.773
50.4104 0.723
50.4270 0.740
50.4435 0.679
50.4601 0.630
50.4766 0.614
50.4932 0.668
50.5097 0.723
50.5263 0.690
50.5428 0.723
50.5594 0.685
50.5759 0.707
50.5924 0.652
50.6090 0.679
50.6255 0.619
50.6421 0.636
50.6586 0.712
50.6752 0.701
50.6917 0.647
50.7083 0.625
50.7248 0.690
50.7414 0.712
50.7579 0.723
50.7744 0.625
50.7910 0.652
50.8075 0.773
50.8241 0.625
50.8406 0.690
50.8572 0.658
50.8737 0.718
50.8903 0.696
50.9068 0.740
50.9234 0.603
50.9399 0.636
50.9564 0.658
50.9730 0.696
50.9895 0.652
51.0061 0.849
51.0226 0.696
51.0392 0.652
51.0557 0.767
51.0723 0.756
51.0888 0.652
51.1054 0.773
51.1219 0.816
51.1384 0.784
51.1550 0.778
51.1715 0.816
51.1881 0.778
51.2046 0.778
51.2212 0.773
51.2377 0.833
51.2543 0.679
51.2708 0.893
51.2874 0.827
51.3039 0.745
51.3204 0.740
51.3370 0.805
51.3535 0.784
51.3701 0.745
51.3866 0.690
51.4032 0.734
51.4197 0.641
51.4363 0.789
51.4528 0.679
51.4694 0.696
51.4859 0.838
51.5024 0.701
51.5190 0.723
51.5355 0.778
51.5521 0.882
51.5686 0.751
51.5852 0.805
51.6017 0.729
51.6183 0.800
51.6348 0.784
51.6514 0.641
51.6679 0.773
51.6844 0.805
51.7010 0.893
51.7175 0.740
51.7341 0.734
51.7506 0.899
51.7672 0.888
51.7837 0.855
51.8003 0.948
51.8168 0.899
51.8333 0.866
51.8499 1.195
51.8664 1.173
51.8830 0.937
51.8995 1.052
51.9161 1.227
51.9326 1.348
51.9492 1.485
51.9657 1.359
51.9823 1.589
51.9988 1.721
52.0153 1.973
52.0319 2.186
52.0484 2.236
52.0650 2.789
52.0815 3.014
52.0981 3.090
52.1146 3.370
52.1312 4.159
52.1477 4.537
52.1643 5.079
52.1808 6.252
52.1973 7.058
52.2139 8.690
52.2304 9.995
52.2470 12.416
52.2635 14.455
52.2801 17.167
52.2966 18.800
52.3132 20.537
52.3297 19.781
52.3463 18.274
52.3628 15.907
52.3793 13.381
52.3959 11.589
52.4124 10.559
52.4290 10.784
52.4455 10.778
52.4621 10.899
52.4786 10.011
52.4952 7.940
52.5117 5.978
52.5283 4.504
52.5448 3.304
52.5613 2.992
52.5779 2.247
52.5944 1.841
52.6110 1.589
52.6275 1.595
52.6441 1.375
52.6606 1.507
52.6772 1.310
52.6937 1.293
52.7103 1.036
52.7268 1.085
52.7433 1.030
52.7599 0.888
52.7764 0.986
52.7930 0.888
52.8095 0.964
52.8261 0.964
52.8426 0.712
52.8592 0.932
52.8757 0.784
52.8923 0.805
52.9088 0.827
52.9253 0.707
52.9419 0.811
52.9584 0.816
52.9750 0.822
52.9915 0.745
53.0081 0.800
53.0246 0.800
53.0412 0.625
53.0577 0.762
53.0743 0.795
53.0908 0.816
53.1073 0.811
53.1239 0.674
53.1404 0.805
53.1570 0.734
53.1735 0.663
53.1901 0.882
53.2066 0.784
53.2232 0.789
53.2397 0.822
53.2563 0.696
53.2728 0.701
53.2893 0.773
53.3059 0.707
53.3224 0.767
53.3390 0.658
53.3555 0.734
53.3721 0.767
53.3886 0.668
53.4052 0.701
53.4217 0.778
53.4383 0.712
53.4548 0.553
53.4713 0.822
53.4879 0.603
53.5044 0.701
53.5210 0.718
53.5375 0.767
53.5541 0.625
53.5706 0.630
53.5872 0.701
53.6037 0.647
53.6203 0.690
53.6368 0.586
53.6533 0.625
53.6699 0.718
53.6864 0.570
53.7030 0.729
53.7195 0.745
53.7361 0.756
53.7526 0.592
53.7692 0.663
53.7857 0.685
53.8023 0.668
53.8188 0.504
53.8353 0.756
53.8519 0.537
53.8684 0.564
53.8850 0.652
53.9015 0.619
53.9181 0.679
53.9346 0.586
53.9512 0.658
53.9677 0.658
53.9843 0.553
54.0008 0.658
54.0173 0.690
54.0339 0.663
54.0504 0.559
54.0670 0.570
54.0835 0.597
54.1001 0.564
54.1166 0.581
54.1332 0.581
54.1497 0.597
54.1663 0.663
54.1828 0.630
54.1993 0.603
54.2159 0.526
54.2324 0.532
54.2490 0.542
54.2655 0.614
54.2821 0.614
54.2986 0.679
54.3152 0.734
54.3317 0.636
54.3483 0.641
54.3648 0.592
54.3813 0.625
54.3979 0.641
54.4144 0.636
54.4310 0.575
54.4475 0.570
54.4641 0.647
54.4806 0.597
54.4972 0.679
54.5137 0.718
54.5302 0.603
54.5468 0.619
54.5633 0.658
54.5799 0.603
54.5964 0.625
54.6130 0.647
54.6295 0.575
54.6461 0.592
54.6626 0.658
54.6792 0.586
54.6957 0.745
54.7122 0.614
54.7288 0.641
54.7453 0.581
54.7619 0.575
54.7784 0.532
54.7950 0.679
54.8115 0.652
54.8281 0.690
54.8446 0.603
54.8612 0.564
54.8777 0.504
54.8942 0.586
54.9108 0.707
54.9273 0.685
54.9439 0.647
54.9604 0.668
54.9770 0.685
54.9935 0.614
55.0101 0.674
55.0266 0.625
55.0432 0.685
55.0597 0.685
55.0762 0.745
55.0928 0.734
55.1093 0.811
55.1259 0.630
55.1424 0.778
55.1590 0.685
55.1755 0.805
55.1921 0.696
55.2086 0.767
55.2252 0.707
55.2417 0.855
55.2582 0.789
55.2748 0.800
55.2913 0.674
55.3079 0.696
55.3244 0.636
55.3410 0.679
55.3575 0.767
55.3741 0.658
55.3906 0.658
55.4072 0.751
55.4237 0.795
55.4402 0.663
55.4568 0.751
55.4733 0.658
55.4899 0.833
55.5064 0.833
55.5230 0.745
55.5395 0.707
55.5561 0.773
55.5726 0.701
55.5892 0.784
55.6057 0.674
55.6222 0.641
55.6388 0.805
55.6553 0.751
55.6719 0.701
55.6884 0.778
55.7050 0.816
55.7215 0.773
55.7381 0.723
55.7546 0.740
55.7712 0.718
55.7877 0.592
55.8042 0.647
55.8208 0.696
55.8373 0.707
55.8539 0.751
55.8704 0.756
55.8870 0.707
55.9035 0.696
55.9201 0.762
55.9366 0.816
55.9532 0.756
55.9697 0.767
55.9862 0.762
56.0028 0.855
56.0193 0.685
56.0359 0.816
56.0524 0.636
56.0690 0.718
56.0855 0.778
56.1021 0.773
56.1186 0.707
56.1352 0.668
56.1517 0.893
56.1682 0.860
56.1848 0.767
56.2013 0.784
56.2179 0.816
56.2344 0.805
56.2510 0.871
56.2675 0.888
56.2841 0.701
56.3006 0.795
56.3172 0.838
56.3337 0.866
56.3502 0.926
56.3668 0.816
56.3833 0.773
56.3999 0.893
56.4164 0.800
56.4330 0.745
56.4495 0.893
56.4661 0.784
56.4826 0.970
56.4992 0.827
56.5157 0.860
56.5322 0.882
56.5488 0.997
56.5653 0.926
56.5819 0.986
56.5984 1.030
56.6150 1.129
56.6315 1.189
56.6481 1.074
56.6646 1.227
56.6812 1.211
56.6977 1.255
56.7142 1.244
56.7308 1.326
56.7473 1.348
56.7639 1.468
56.7804 1.507
56.7970 1.589
56.8135 1.578
56.8301 1.836
56.8466 1.995
56.8632 2.088
56.8797 2.405
56.8962 2.570
56.9128 2.701
56.9293 3.490
56.9459 3.529
56.9624 4.323
56.9790 4.510
56.9955 5.359
57.0121 5.786
57.0286 6.537
57.0452 7.386
57.0617 8.597
57.0782 10.016
57.0948 12.033
57.1113 13.836
57.1279 16.455
57.1444 19.008
57.1610 22.877
57.1775 26.926
57.1941 30.367
57.2106 35.167
57.2272 37.956
57.2437 37.266
57.2602 34.663
57.2768 30.132
57.2933 24.504
57.3099 21.474
57.3264 19.359
57.3430 18.827
57.3595 19.984
57.3761 20.340
57.3926 19.238
57.4091 18.016
57.4257 15.282
57.4422 11.589
57.4588 9.178
57.4753 6.219
57.4919 4.822
57.5084 3.967
57.5250 3.293
57.5415 2.668
57.5581 2.351
57.5746 2.285
57.5911 1.907
57.6077 1.693
57.6242 1.600
57.6408 1.463
57.6573 1.425
57.6739 1.425
57.6904 1.332
57.7070 1.277
57.7235 1.189
57.7401 1.156
57.7566 1.266
57.7731 1.058
57.7897 0.970
57.8062 0.953
57.8228 1.047
57.8393 1.112
57.8559 0.959
57.8724 0.948
57.8890 0.882
57.9055 1.008
57.9221 0.822
57.9386 0.866
57.9551 0.871
57.9717 0.877
57.9882 0.805
58.0048 0.784
58.0213 0.849
58.0379 0.778
58.0544 0.882
58.0710 0.789
58.0875 0.800
58.1041 0.800
58.1206 0.701
58.1371 0.718
58.1537 0.789
58.1702 0.778
58.1868 0.805
58.2033 0.811
58.2199 0.789
58.2364 0.762
58.2530 0.888
58.2695 0.707
58.2861 0.784
58.3026 0.723
58.3191 0.778
58.3357 0.805
58.3522 0.674
58.3688 0.718
58.3853 0.723
58.4019 0.690
58.4184 0.756
58.4350 0.767
58.4515 0.668
58.4681 0.773
58.4846 0.668
58.5011 0.767
58.5177 0.762
58.5342 0.641
58.5508 0.778
58.5673 0.597
58.5839 0.734
58.6004 0.674
58.6170 0.751
58.6335 0.701
58.6501 0.712
58.6666 0.767
58.6831 0.625
58.6997 0.696
58.7162 0.745
58.7328 0.592
58.7493 0.701
58.7659 0.723
58.7824 0.603
58.7990 0.608
58.8155 0.712
58.8321 0.652
58.8486 0.636
58.8651 0.625
58.8817 0.564
58.8982 0.619
58.9148 0.800
58.9313 0.685
58.9479 0.658
58.9644 0.712
58.9810 0.690
58.9975 0.652
59.0141 0.679
59.0306 0.619
59.0471 0.658
59.0637 0.663
59.0802 0.767
59.0968 0.701
59.1133 0.679
59.1299 0.745
59.1464 0.778
59.1630 0.767
59.1795 0.773
59.1961 0.734
59.2126 0.795
59.2291 0.690
59.2457 0.718
59.2622 0.849
59.2788 0.723
59.2953 0.816
59.3119 0.723
59.3284 0.729
59.3450 0.877
59.3615 0.959
59.3781 1.151
59.3946 1.151
59.4111 1.348
59.4277 1.266
59.4442 1.425
59.4608 1.611
59.4773 1.556
59.4939 1.622
59.5104 1.556
59.5270 1.282
59.5435 1.134
59.5601 1.025
59.5766 1.304
59.5931 1.101
59.6097 1.184
59.6262 1.036
59.6428 1.085
59.6593 0.964
59.6759 1.063
59.6924 0.816
59.7090 0.877
59.7255 0.822
59.7421 0.690
59.7586 0.608
59.7751 0.603
59.7917 0.674
59.8082 0.603
59.8248 0.729
59.8413 0.564
59.8579 0.668
59.8744 0.636
59.8910 0.608
59.9075 0.603
59.9241 0.542
59.9406 0.592
59.9571 0.778
59.9737 0.740
59.9902 0.652
60.0068 0.647
60.0233 0.586
60.0399 0.668
60.0564 0.592
60.0730 0.553
60.0895 0.553
60.1060 0.553
60.1226 0.603
60.1391 0.625
60.1557 0.625
60.1722 0.559
60.1888 0.614
60.2053 0.696
60.2219 0.729
60.2384 0.564
60.2550 0.515
60.2715 0.592
60.2880 0.603
60.3046 0.647
60.3211 0.658
60.3377 0.581
60.3542 0.690
60.3708 0.723
60.3873 0.570
60.4039 0.608
60.4204 0.685
60.4370 0.718
60.4535 0.701
60.4700 0.745
60.4866 0.723
60.5031 0.723
60.5197 0.696
60.5362 0.679
60.5528 0.701
60.5693 0.811
60.5859 0.877
60.6024 0.696
60.6190 0.910
60.6355 0.860
60.6520 0.855
60.6686 1.107
60.6851 1.134
60.7017 1.068
60.7182 1.233
60.7348 1.375
60.7513 1.211
60.7679 1.759
60.7844 1.770
60.8010 1.940
60.8175 2.022
60.8340 2.427
60.8506 2.427
60.8671 2.811
60.8837 2.773
60.9002 2.745
60.9168 2.805
60.9333 2.866
60.9499 3.211
60.9664 3.496
60.9830 3.945
60.9995 4.022
61.0160 3.934
61.0326 3.682
61.0491 3.205
61.0657 2.932
61.0822 2.652
61.0988 2.263
61.1153 2.088
61.1319 2.192
61.1484 2.258
61.1650 2.044
61.1815 2.219
61.1980 1.907
61.2146 1.655
61.2311 1.474
61.2477 1.282
61.2642 1.074
61.2808 1.003
61.2973 0.827
61.3139 0.866
61.3304 0.784
61.3470 0.789
61.3635 0.729
61.3800 0.756
61.3966 0.614
61.4131 0.751
61.4297 0.559
61.4462 0.663
61.4628 0.679
61.4793 0.619
61.4959 0.603
61.5124 0.630
61.5290 0.674
61.5455 0.564
61.5620 0.603
61.5786 0.515
61.5951 0.619
61.6117 0.548
61.6282 0.537
61.6448 0.663
61.6613 0.581
61.6779 0.625
61.6944 0.515
61.7110 0.493
61.7275 0.521
61.7440 0.663
61.7606 0.564
61.7771 0.603
61.7937 0.614
61.8102 0.696
61.8268 0.542
61.8433 0.553
61.8599 0.493
61.8764 0.614
61.8930 0.564
61.9095 0.548
61.9260 0.658
61.9426 0.592
61.9591 0.493
61.9757 0.515
61.9922 0.630
62.0088 0.614
62.0253 0.570
62.0419 0.592
62.0584 0.592
62.0750 0.701
62.0915 0.570
62.1080 0.564
62.1246 0.581
62.1411 0.433
62.1577 0.586
62.1742 0.564
62.1908 0.504
62.2073 0.537
62.2239 0.526
62.2404 0.499
62.2570 0.532
62.2735 0.493
62.2900 0.553
62.3066 0.477
62.3231 0.630
62.3397 0.521
62.3562 0.619
62.3728 0.625
62.3893 0.504
62.4059 0.482
62.4224 0.559
62.4390 0.581
62.4555 0.674
62.4720 0.504
62.4886 0.597
62.5051 0.597
62.5217 0.477
62.5382 0.586
62.5548 0.504
62.5713 0.526
62.5879 0.674
62.6044 0.521
62.6210 0.455
62.6375 0.597
62.6540 0.521
62.6706 0.537
62.6871 0.532
62.7037 0.548
62.7202 0.570
62.7368 0.373
62.7533 0.521
62.7699 0.515
62.7864 0.537
62.8029 0.471
62.8195 0.515
62.8360 0.460
62.8526 0.559
62.8691 0.636
62.8857 0.581
62.9022 0.625
62.9188 0.532
62.9353 0.575
62.9519 0.526
62.9684 0.526
62.9849 0.504
63.0015 0.488
63.0180 0.526
63.0346 0.526
63.0511 0.586
63.0677 0.542
63.0842 0.570
63.1008 0.466
63.1173 0.488
63.1339 0.542
63.1504 0.521
63.1669 0.592
63.1835 0.553
63.2000 0.493
63.2166 0.575
63.2331 0.548
63.2497 0.559
63.2662 0.532
63.2828 0.537
63.2993 0.521
63.3159 0.532
63.3324 0.564
63.3489 0.619
63.3655 0.619
63.3820 0.608
63.3986 0.422
63.4151 0.526
63.4317 0.515
63.4482 0.630
63.4648 0.488
63.4813 0.521
63.4979 0.477
63.5144 0.652
63.5309 0.488
63.5475 0.658
63.5640 0.499
63.5806 0.488
63.5971 0.586
63.6137 0.515
63.6302 0.438
63.6468 0.521
63.6633 0.559
63.6799 0.597
63.6964 0.537
63.7129 0.685
63.7295 0.603
63.7460 0.658
63.7626 0.493
63.7791 0.630
63.7957 0.455
63.8122 0.592
63.8288 0.614
63.8453 0.614
63.8619 0.564
63.8784 0.548
63.8949 0.510
63.9115 0.630
63.9280 0.652
63.9446 0.460
63.9611 0.499
63.9777 0.570
63.9942 0.515
64.0108 0.532
64.0273 0.652
64.0439 0.553
64.0604 0.564
64.0769 0.647
64.0935 0.679
64.1100 0.449
64.1266 0.493
64.1431 0.570
64.1597 0.570
64.1762 0.526
64.1928 0.641
64.2093 0.460
64.2259 0.493
64.2424 0.586
64.2589 0.460
64.2755 0.592
64.2920 0.581
64.3086 0.526
64.3251 0.619
64.3417 0.510
64.3582 0.647
64.3748 0.570
64.3913 0.488
64.4079 0.630
64.4244 0.521
64.4409 0.537
64.4575 0.537
64.4740 0.630
64.4906 0.592
64.5071 0.564
64.5237 0.559
64.5402 0.614
64.5568 0.586
64.5733 0.723
64.5899 0.718
64.6064 0.641
64.6229 0.658
64.6395 0.674
64.6560 0.570
64.6726 0.630
64.6891 0.542
64.7057 0.477
64.7222 0.537
64.7388 0.641
64.7553 0.663
64.7719 0.581
64.7884 0.570
64.8049 0.625
64.8215 0.548
64.8380 0.575
64.8546 0.455
64.8711 0.548
64.8877 0.575
64.9042 0.608
64.9208 0.614
64.9373 0.668
64.9539 0.564
64.9704 0.504
64.9869 0.526
65.0035 0.493
65.0200 0.570
65.0366 0.751
65.0531 0.570
65.0697 0.559
65.0862 0.625
65.1028 0.625
65.1193 0.586
65.1359 0.526
65.1524 0.575
65.1689 0.701
65.1855 0.542
65.2020 0.619
65.2186 0.652
65.2351 0.636
65.2517 0.658
65.2682 0.647
65.2848 0.614
65.3013 0.685
65.3179 0.663
65.3344 0.685
65.3509 0.592
65.3675 0.778
65.3840 0.630
65.4006 0.729
65.4171 0.614
65.4337 0.712
65.4502 0.592
65.4668 0.822
65.4833 0.663
65.4999 0.849
65.5164 0.723
65.5329 0.773
65.5495 0.707
65.5660 0.679
65.5826 0.789
65.5991 0.751
65.6157 0.756
65.6322 0.756
65.6488 0.762
65.6653 0.625
65.6818 0.800
65.6984 0.877
65.7149 0.882
65.7315 0.992
65.7480 1.041
65.7646 1.074
65.7811 1.052
65.7977 1.211
65.8142 1.096
65.8308 1.288
65.8473 1.211
65.8638 1.282
65.8804 1.436
65.8969 1.715
65.9135 1.616
65.9300 2.033
65.9466 1.934
65.9631 2.115
65.9797 2.619
65.9962 2.658
66.0128 2.975
66.0293 3.627
66.0458 4.099
66.0624 4.619
66.0789 5.019
66.0955 5.666
66.1120 6.915
66.1286 8.334
66.1451 9.090
66.1617 10.805
66.1782 12.405
66.1948 13.468
66.2113 13.611
66.2278 13.079
66.2444 11.403
66.2609 10.005
66.2775 8.126
66.2940 6.625
66.3106 6.422
66.3271 6.751
66.3437 6.619
66.3602 6.932
66.3768 7.266
66.3933 7.167
66.4098 7.047
66.4264 6.203
66.4429 5.299
66.4595 4.005
66.4760 2.953
66.4926 2.367
66.5091 2.142
66.5257 1.819
66.5422 1.523
66.5588 1.436
66.5753 1.167
66.5918 1.271
66.6084 1.058
66.6249 1.151
66.6415 1.118
66.6580 0.959
66.6746 0.986
66.6911 1.068
66.7077 0.915
66.7242 0.964
66.7408 0.904
66.7573 0.855
66.7738 0.767
66.7904 0.805
66.8069 0.740
66.8235 0.778
66.8400 0.882
66.8566 0.910
66.8731 0.729
66.8897 0.816
66.9062 0.816
66.9228 0.833
66.9393 0.685
66.9558 0.762
66.9724 0.811
66.9889 0.915
67.0055 0.789
67.0220 0.762
67.0386 0.784
67.0551 0.773
67.0717 0.723
67.0882 0.734
67.1048 0.838
67.1213 0.805
67.1378 0.712
67.1544 0.762
67.1709 0.800
67.1875 0.751
67.2040 0.800
67.2206 0.871
67.2371 0.773
67.2537 0.844
67.2702 0.893
67.2868 0.964
67.3033 0.811
67.3198 0.915
67.3364 0.992
67.3529 0.953
67.3695 0.997
67.3860 1.047
67.4026 1.036
67.4191 1.184
67.4357 1.227
67.4522 1.211
67.4688 1.315
67.4853 1.501
67.5018 1.458
67.5184 1.688
67.5349 1.721
67.5515 1.633
67.5680 2.055
67.5846 2.181
67.6011 1.989
67.6177 2.575
67.6342 2.663
67.6508 3.436
67.6673 3.436
67.6838 3.814
67.7004 4.115
67.7169 4.701
67.7335 5.737
67.7500 6.707
67.7666 7.562
67.7831 8.570
67.7997 10.247
67.8162 11.814
67.8328 13.912
67.8493 16.197
67.8658 17.759
67.8824 20.060
67.8989 19.534
67.9155 18.849
67.9320 16.888
67.9486 14.805
67.9651 11.332
67.9817 9.896
67.9982 9.173
68.0148 8.888
68.0313 8.888
68.0478 9.852
68.0644 10.488
68.0809 10.444
68.0975 10.236
68.1140 9.353
68.1306 7.501
68.1471 6.258
68.1637 4.526
68.1802 3.545
68.1968 2.740
68.2133 2.208
68.2298 1.885
68.2464 1.945
68.2629 1.737
68.2795 1.490
68.2960 1.370
68.3126 1.151
68.3291 1.162
68.3457 1.058
68.3622 1.025
68.3787 1.118
68.3953 0.981
68.4118 1.068
68.4284 0.811
68.4449 1.003
68.4615 0.767
68.4780 0.718
68.4946 0.767
68.5111 0.784
68.5277 0.789
68.5442 0.816
68.5607 0.751
68.5773 0.800
68.5938 0.745
68.6104 0.652
68.6269 0.751
68.6435 0.663
68.6600 0.696
68.6766 0.641
68.6931 0.707
68.7097 0.679
68.7262 0.614
68.7427 0.608
68.7593 0.614
68.7758 0.690
68.7924 0.647
68.8089 0.668
68.8255 0.658
68.8420 0.685
68.8586 0.701
68.8751 0.614
68.8917 0.647
68.9082 0.647
68.9247 0.532
68.9413 0.564
68.9578 0.690
68.9744 0.641
68.9909 0.674
69.0075 0.652
69.0240 0.526
69.0406 0.586
69.0571 0.564
69.0737 0.668
69.0902 0.592
69.1067 0.526
69.1233 0.608
69.1398 0.630
69.1564 0.564
69.1729 0.526
69.1895 0.575
69.2060 0.619
69.2226 0.504
69.2391 0.499
69.2557 0.537
69.2722 0.521
69.2887 0.537
69.3053 0.515
69.3218 0.477
69.3384 0.630
69.3549 0.575
69.3715 0.553
69.3880 0.586
69.4046 0.542
69.4211 0.532
69.4377 0.564
69.4542 0.592
69.4707 0.712
69.4873 0.515
69.5038 0.433
69.5204 0.690
69.5369 0.471
69.5535 0.532
69.5700 0.630
69.5866 0.499
69.6031 0.433
69.6197 0.537
69.6362 0.510
69.6527 0.553
69.6693 0.619
69.6858 0.647
69.7024 0.510
69.7189 0.559
69.7355 0.384
69.7520 0.422
69.7686 0.559
69.7851 0.532
69.8017 0.570
69.8182 0.608
69.8347 0.597
69.8513 0.570
69.8678 0.592
69.8844 0.668
69.9009 0.570
69.9175 0.608
69.9340 0.630
69.9506 0.581
69.9671 0.679
69.9837 0.707
70.0002 0.723
