'Id: "" Comment: "" Operator: "Administrator" Anode: "Cu" Scantype: "Locked Coupled" TimePerStep: "182.5" X: "0" Y: "0" Z: "0" 
20.0000 2.411
20.0165 2.225
20.0331 2.279
20.0496 2.153
20.0662 2.279
20.0827 2.345
20.0993 2.378
20.1158 2.323
20.1324 2.274
20.1489 2.416
20.1655 2.247
20.1820 2.405
20.1985 2.290
20.2151 2.268
20.2316 2.427
20.2482 2.197
20.2647 2.400
20.2813 2.422
20.2978 2.340
20.3144 2.164
20.3309 2.252
20.3475 2.296
20.3640 2.219
20.3805 2.307
20.3971 2.356
20.4136 2.290
20.4302 2.236
20.4467 1.967
20.4633 2.181
20.4798 2.334
20.4964 2.197
20.5129 2.329
20.5295 2.225
20.5460 2.153
20.5625 2.093
20.5791 1.995
20.5956 2.230
20.6122 2.005
20.6287 2.236
20.6453 2.334
20.6618 2.438
20.6784 2.395
20.6949 2.164
20.7115 2.082
20.7280 2.104
20.7445 2.110
20.7611 2.345
20.7776 2.016
20.7942 2.400
20.8107 2.121
20.8273 2.318
20.8438 2.175
20.8604 2.121
20.8769 2.132
20.8935 2.247
20.9100 2.077
20.9265 1.956
20.9431 2.142
20.9596 2.093
20.9762 2.230
20.9927 2.296
21.0093 2.027
21.0258 2.099
21.0424 2.263
21.0589 2.318
21.0755 2.049
21.0920 2.170
21.1085 2.186
21.1251 2.268
21.1416 2.175
21.1582 2.055
21.1747 2.137
21.1913 2.011
21.2078 2.104
21.2244 2.258
21.2409 2.236
21.2575 2.186
21.2740 2.268
21.2905 2.110
21.3071 2.126
21.3236 2.099
21.3402 2.049
21.3567 2.077
21.3733 2.219
21.3898 2.060
21.4064 2.247
21.4229 2.192
21.4394 2.027
21.4560 1.934
21.4725 1.984
21.4891 1.940
21.5056 1.973
21.5222 2.362
21.5387 2.230
21.5553 2.214
21.5718 1.967
21.5884 2.000
21.6049 2.351
21.6214 2.175
21.6380 2.132
21.6545 2.099
21.6711 2.126
21.6876 2.137
21.7042 2.071
21.7207 2.181
21.7373 2.049
21.7538 2.104
21.7704 1.978
21.7869 2.033
21.8034 2.274
21.8200 2.148
21.8365 2.027
21.8531 2.192
21.8696 2.142
21.8862 2.049
21.9027 2.022
21.9193 2.126
21.9358 1.918
21.9524 2.022
21.9689 2.082
21.9854 1.940
22.0020 2.296
22.0185 2.049
22.0351 2.159
22.0516 2.137
22.0682 1.967
22.0847 2.049
22.1013 2.159
22.1178 2.066
22.1344 2.121
22.1509 1.841
22.1674 1.945
22.1840 2.088
22.2005 1.852
22.2171 1.918
22.2336 2.016
22.2502 1.841
22.2667 1.967
22.2833 2.011
22.2998 1.951
22.3164 2.000
22.3329 2.000
22.3494 1.951
22.3660 2.027
22.3825 2.175
22.3991 2.373
22.4156 1.929
22.4322 2.142
22.4487 1.847
22.4653 2.049
22.4818 1.978
22.4984 1.907
22.5149 1.803
22.5314 1.901
22.5480 1.929
22.5645 2.082
22.5811 1.879
22.5976 1.929
22.6142 1.907
22.6307 1.984
22.6473 1.951
22.6638 1.907
22.6804 2.011
22.6969 2.077
22.7134 1.863
22.7300 2.137
22.7465 1.792
22.7631 1.868
22.7796 1.923
22.7962 1.786
22.8127 2.000
22.8293 1.748
22.8458 1.868
22.8624 2.110
22.8789 1.792
22.8954 1.918
22.9120 1.984
22.9285 2.088
22.9451 1.956
22.9616 1.962
22.9782 1.918
22.9947 2.132
23.0113 1.940
23.0278 1.940
23.0444 1.934
23.0609 1.995
23.0774 2.071
23.0940 1.797
23.1105 1.956
23.1271 1.759
23.1436 2.104
23.1602 2.033
23.1767 1.830
23.1933 1.671
23.2098 1.858
23.2264 1.973
23.2429 1.764
23.2594 1.973
23.2760 1.962
23.2925 1.940
23.3091 1.863
23.3256 1.956
23.3422 1.896
23.3587 1.852
23.3753 1.715
23.3918 1.874
23.4084 1.929
23.4249 1.786
23.4414 1.890
23.4580 1.852
23.4745 1.912
23.4911 1.797
23.5076 1.868
23.5242 1.699
23.5407 1.605
23.5573 1.956
23.5738 1.879
23.5904 1.885
23.6069 1.847
23.6234 1.825
23.6400 1.847
23.6565 1.797
23.6731 1.847
23.6896 1.759
23.7062 1.879
23.7227 1.868
23.7393 1.841
23.7558 1.753
23.7724 1.742
23.7889 1.786
23.8054 1.830
23.8220 1.896
23.8385 1.764
23.8551 1.940
23.8716 1.879
23.8882 1.885
23.9047 1.973
23.9213 1.896
23.9378 1.995
23.9544 1.797
23.9709 2.049
23.9874 1.923
24.0040 2.115
24.0205 2.241
24.0371 2.175
24.0536 1.874
24.0702 1.940
24.0867 2.268
24.1033 2.208
24.1198 2.033
24.1364 2.066
24.1529 2.132
24.1694 1.858
24.1860 2.164
24.2025 2.285
24.2191 2.411
24.2356 2.247
24.2522 2.449
24.2687 2.066
24.2853 2.274
24.3018 2.142
24.3183 2.367
24.3349 2.537
24.3514 2.247
24.3680 2.285
24.3845 2.460
24.4011 2.290
24.4176 2.159
24.4342 2.411
24.4507 2.329
24.4673 2.252
24.4838 2.477
24.5003 2.526
24.5169 2.400
24.5334 2.559
24.5500 2.784
24.5665 2.482
24.5831 2.553
24.5996 2.608
24.6162 2.740
24.6327 2.696
24.6493 2.592
24.6658 2.756
24.6823 2.740
24.6989 2.756
24.7154 2.603
24.7320 2.767
24.7485 2.915
24.7651 3.145
24.7816 2.444
24.7982 2.827
24.8147 3.063
24.8313 3.123
24.8478 2.921
24.8643 2.942
24.8809 2.816
24.8974 3.036
24.9140 2.948
24.9305 2.877
24.9471 3.036
24.9636 2.816
24.9802 2.701
24.9967 2.849
25.0133 2.975
25.0298 2.877
25.0463 2.893
25.0629 2.997
25.0794 2.860
25.0960 3.058
25.1125 3.222
25.1291 3.227
25.1456 3.425
25.1622 3.529
25.1787 3.589
25.1953 3.962
25.2118 4.038
25.2283 4.444
25.2449 4.926
25.2614 5.151
25.2780 5.890
25.2945 7.068
25.3111 8.378
25.3276 9.732
25.3442 12.093
25.3607 15.014
25.3773 19.304
25.3938 23.326
25.4103 28.910
25.4269 33.184
25.4434 36.181
25.4600 35.551
25.4765 33.178
25.4931 29.808
25.5096 25.233
25.5262 20.805
25.5427 17.003
25.5593 12.186
25.5758 8.751
25.5923 7.156
25.6089 5.748
25.6254 4.581
25.6420 4.225
25.6585 3.764
25.6751 3.381
25.6916 3.178
25.7082 3.211
25.7247 3.036
25.7413 2.893
25.7578 2.964
25.7743 2.800
25.7909 2.784
25.8074 2.663
25.8240 2.444
25.8405 2.647
25.8571 2.619
25.8736 2.488
25.8902 2.367
25.9067 2.597
25.9233 2.603
25.9398 2.581
25.9563 2.488
25.9729 2.608
25.9894 2.345
26.0060 2.427
26.0225 2.290
26.0391 2.340
26.0556 2.373
26.0722 2.175
26.0887 2.153
26.1053 2.038
26.1218 2.252
26.1383 2.301
26.1549 2.236
26.1714 2.356
26.1880 2.318
26.2045 2.258
26.2211 2.016
26.2376 2.236
26.2542 2.203
26.2707 2.389
26.2873 2.197
26.3038 2.159
26.3203 2.241
26.3369 1.967
26.3534 2.033
26.3700 2.230
26.3865 2.214
26.4031 2.104
26.4196 2.104
26.4362 2.153
26.4527 2.137
26.4693 2.175
26.4858 2.022
26.5023 2.323
26.5189 2.033
26.5354 1.995
26.5520 2.033
26.5685 2.027
26.5851 1.940
26.6016 1.858
26.6182 2.099
26.6347 1.951
26.6513 2.110
26.6678 2.016
26.6843 2.038
26.7009 2.038
26.7174 1.907
26.7340 1.934
26.7505 1.940
26.7671 2.093
26.7836 1.874
26.8002 1.841
26.8167 2.088
26.8333 2.016
26.8498 2.022
26.8663 2.016
26.8829 2.197
26.8994 1.885
26.9160 2.016
26.9325 1.984
26.9491 1.907
26.9656 2.121
26.9822 2.049
26.9987 1.868
27.0152 1.649
27.0318 1.792
27.0483 1.984
27.0649 1.934
27.0814 1.973
27.0980 1.748
27.1145 1.825
27.1311 2.038
27.1476 1.863
27.1642 2.049
27.1807 1.710
27.1972 1.775
27.2138 1.896
27.2303 1.973
27.2469 1.885
27.2634 1.945
27.2800 1.918
27.2965 1.726
27.3131 2.126
27.3296 1.830
27.3462 1.940
27.3627 2.022
27.3792 1.775
27.3958 1.984
27.4123 1.874
27.4289 1.896
27.4454 1.770
27.4620 1.874
27.4785 1.847
27.4951 1.786
27.5116 1.764
27.5282 1.814
27.5447 1.896
27.5612 1.644
27.5778 1.633
27.5943 1.616
27.6109 1.699
27.6274 1.786
27.6440 1.934
27.6605 1.710
27.6771 1.967
27.6936 1.742
27.7102 1.797
27.7267 1.819
27.7432 1.688
27.7598 1.781
27.7763 1.666
27.7929 1.622
27.8094 1.858
27.8260 1.595
27.8425 1.748
27.8591 1.803
27.8756 1.699
27.8922 1.803
27.9087 1.578
27.9252 1.737
27.9418 1.578
27.9583 1.715
27.9749 1.726
27.9914 1.934
28.0080 1.803
28.0245 1.699
28.0411 1.545
28.0576 1.611
28.0742 1.704
28.0907 1.611
28.1072 1.666
28.1238 1.666
28.1403 1.507
28.1569 1.567
28.1734 1.392
28.1900 1.507
28.2065 1.616
28.2231 1.567
28.2396 1.540
28.2562 1.753
28.2727 1.666
28.2892 1.463
28.3058 1.660
28.3223 1.441
28.3389 1.534
28.3554 1.589
28.3720 1.584
28.3885 1.578
28.4051 1.518
28.4216 1.688
28.4382 1.627
28.4547 1.556
28.4712 1.556
28.4878 1.704
28.5043 1.693
28.5209 1.578
28.5374 1.737
28.5540 1.496
28.5705 1.551
28.5871 1.375
28.6036 1.677
28.6202 1.556
28.6367 1.622
28.6532 1.529
28.6698 1.534
28.6863 1.534
28.7029 1.447
28.7194 1.414
28.7360 1.627
28.7525 1.485
28.7691 1.441
28.7856 1.562
28.8022 1.479
28.8187 1.523
28.8352 1.556
28.8518 1.573
28.8683 1.337
28.8849 1.496
28.9014 1.458
28.9180 1.529
28.9345 1.523
28.9511 1.512
28.9676 1.414
28.9842 1.233
29.0007 1.501
29.0172 1.578
29.0338 1.468
29.0503 1.293
29.0669 1.184
29.0834 1.277
29.1000 1.403
29.1165 1.397
29.1331 1.430
29.1496 1.463
29.1662 1.518
29.1827 1.474
29.1992 1.310
29.2158 1.321
29.2323 1.501
29.2489 1.359
29.2654 1.474
29.2820 1.540
29.2985 1.332
29.3151 1.529
29.3316 1.233
29.3482 1.463
29.3647 1.419
29.3812 1.271
29.3978 1.370
29.4143 1.184
29.4309 1.403
29.4474 1.655
29.4640 1.299
29.4805 1.337
29.4971 1.518
29.5136 1.485
29.5302 1.419
29.5467 1.397
29.5632 1.392
29.5798 1.468
29.5963 1.447
29.6129 1.397
29.6294 1.479
29.6460 1.584
29.6625 1.386
29.6791 1.474
29.6956 1.545
29.7121 1.288
29.7287 1.441
29.7452 1.408
29.7618 1.321
29.7783 1.545
29.7949 1.315
29.8114 1.485
29.8280 1.326
29.8445 1.452
29.8611 1.479
29.8776 1.233
29.8941 1.249
29.9107 1.359
29.9272 1.189
29.9438 1.337
29.9603 1.375
29.9769 1.156
29.9934 1.310
30.0100 1.332
30.0265 1.288
30.0431 1.227
30.0596 1.195
30.0761 1.468
30.0927 1.293
30.1092 1.364
30.1258 1.249
30.1423 1.490
30.1589 1.304
30.1754 1.430
30.1920 1.244
30.2085 1.342
30.2251 1.326
30.2416 1.310
30.2581 1.408
30.2747 1.332
30.2912 1.288
30.3078 1.364
30.3243 1.216
30.3409 1.277
30.3574 1.310
30.3740 1.244
30.3905 1.425
30.4071 1.332
30.4236 1.397
30.4401 1.205
30.4567 1.266
30.4732 1.260
30.4898 1.332
30.5063 1.282
30.5229 1.353
30.5394 1.184
30.5560 1.205
30.5725 1.403
30.5891 1.430
30.6056 1.249
30.6221 1.348
30.6387 1.326
30.6552 1.277
30.6718 1.244
30.6883 1.282
30.7049 1.156
30.7214 1.244
30.7380 1.036
30.7545 1.162
30.7711 1.184
30.7876 1.244
30.8041 1.200
30.8207 1.063
30.8372 1.216
30.8538 1.353
30.8703 1.216
30.8869 1.156
30.9034 1.293
30.9200 1.173
30.9365 1.271
30.9531 1.123
30.9696 1.184
30.9861 1.288
31.0027 1.151
31.0192 1.255
31.0358 1.348
31.0523 1.200
31.0689 1.173
31.0854 1.195
31.1020 1.326
31.1185 1.205
31.1351 1.315
31.1516 1.112
31.1681 1.101
31.1847 1.342
31.2012 1.304
31.2178 1.173
31.2343 1.321
31.2509 1.238
31.2674 1.244
31.2840 1.195
31.3005 1.233
31.3171 1.348
31.3336 1.260
31.3501 1.211
31.3667 1.266
31.3832 1.299
31.3998 1.249
31.4163 1.249
31.4329 1.118
31.4494 1.255
31.4660 1.370
31.4825 1.211
31.4991 1.260
31.5156 1.266
31.5321 1.260
31.5487 1.249
31.5652 1.266
31.5818 1.216
31.5983 1.227
31.6149 1.145
31.6314 1.178
31.6480 1.216
31.6645 1.151
31.6811 1.200
31.6976 1.058
31.7141 1.118
31.7307 1.189
31.7472 1.173
31.7638 1.074
31.7803 1.162
31.7969 1.096
31.8134 1.238
31.8300 1.222
31.8465 1.052
31.8631 1.074
31.8796 1.195
31.8961 1.101
31.9127 1.156
31.9292 1.162
31.9458 1.096
31.9623 1.085
31.9789 1.195
31.9954 1.277
32.0120 1.140
32.0285 1.085
32.0451 0.964
32.0616 1.063
32.0781 1.189
32.0947 1.025
32.1112 1.233
32.1278 1.058
32.1443 0.997
32.1609 1.151
32.1774 1.118
32.1940 0.986
32.2105 1.145
32.2271 1.167
32.2436 1.195
32.2601 1.145
32.2767 1.079
32.2932 1.178
32.3098 1.025
32.3263 1.041
32.3429 1.178
32.3594 1.200
32.3760 0.986
32.3925 1.167
32.4091 1.112
32.4256 1.058
32.4421 1.178
32.4587 1.151
32.4752 1.129
32.4918 0.926
32.5083 1.107
32.5249 0.855
32.5414 1.205
32.5580 1.233
32.5745 1.173
32.5910 1.151
32.6076 1.173
32.6241 1.068
32.6407 1.178
32.6572 1.112
32.6738 1.178
32.6903 1.090
32.7069 1.068
32.7234 1.156
32.7400 1.008
32.7565 1.058
32.7730 0.997
32.7896 1.118
32.8061 1.085
32.8227 1.079
32.8392 1.140
32.8558 1.112
32.8723 1.068
32.8889 1.085
32.9054 1.123
32.9220 1.205
32.9385 1.134
32.9550 1.112
32.9716 0.921
32.9881 1.227
33.0047 1.052
33.0212 1.008
33.0378 1.008
33.0543 0.942
33.0709 1.025
33.0874 1.090
33.1040 1.068
33.1205 1.052
33.1370 0.997
33.1536 1.085
33.1701 1.014
33.1867 1.058
33.2032 1.118
33.2198 1.025
33.2363 0.992
33.2529 1.134
33.2694 1.189
33.2860 1.195
33.3025 1.134
33.3190 0.926
33.3356 0.986
33.3521 1.145
33.3687 1.118
33.3852 1.003
33.4018 1.101
33.4183 1.134
33.4349 1.074
33.4514 1.184
33.4680 1.151
33.4845 1.112
33.5010 1.195
33.5176 1.205
33.5341 1.118
33.5507 1.184
33.5672 1.211
33.5838 1.074
33.6003 1.014
33.6169 1.014
33.6334 1.030
33.6500 1.052
33.6665 1.167
33.6830 1.375
33.6996 1.129
33.7161 1.238
33.7327 1.271
33.7492 1.211
33.7658 1.282
33.7823 1.184
33.7989 1.397
33.8154 1.332
33.8320 1.419
33.8485 1.375
33.8650 1.381
33.8816 1.310
33.8981 1.222
33.9147 1.419
33.9312 1.386
33.9478 1.337
33.9643 1.359
33.9809 1.277
33.9974 1.392
34.0140 1.353
34.0305 1.271
34.0470 1.315
34.0636 1.458
34.0801 1.293
34.0967 1.353
34.1132 1.392
34.1298 1.310
34.1463 1.321
34.1629 1.518
34.1794 1.222
34.1960 1.441
34.2125 1.458
34.2290 1.485
34.2456 1.403
34.2621 1.496
34.2787 1.441
34.2952 1.518
34.3118 1.644
34.3283 1.458
34.3449 1.468
34.3614 1.562
34.3780 1.677
34.3945 1.534
34.4110 1.551
34.4276 1.545
34.4441 1.726
34.4607 1.556
34.4772 1.732
34.4938 1.737
34.5103 1.967
34.5269 1.962
34.5434 1.929
34.5600 2.110
34.5765 2.148
34.5930 2.071
34.6096 2.636
34.6261 2.712
34.6427 2.942
34.6592 3.326
34.6758 3.567
34.6923 4.000
34.7089 4.663
34.7254 5.101
34.7420 5.633
34.7585 6.641
34.7750 7.918
34.7916 8.597
34.8081 10.373
34.8247 12.964
34.8412 15.359
34.8578 18.932
34.8743 24.334
34.8909 30.296
34.9074 35.742
34.9240 43.342
34.9405 48.866
34.9570 49.627
34.9736 46.789
34.9901 41.874
35.0067 37.595
35.0232 32.734
35.0398 29.452
35.0563 25.123
35.0729 19.710
35.0894 15.293
35.1060 10.948
35.1225 8.049
35.1390 6.066
35.1556 4.444
35.1721 3.868
35.1887 3.315
35.2052 2.795
35.2218 2.630
35.2383 2.444
35.2549 2.285
35.2714 2.236
35.2879 2.077
35.3045 1.896
35.3210 1.830
35.3376 1.847
35.3541 1.792
35.3707 1.781
35.3872 1.578
35.4038 1.441
35.4203 1.545
35.4369 1.589
35.4534 1.288
35.4699 1.397
35.4865 1.600
35.5030 1.523
35.5196 1.364
35.5361 1.370
35.5527 1.403
35.5692 1.266
35.5858 1.337
35.6023 1.436
35.6189 1.332
35.6354 1.332
35.6519 1.216
35.6685 1.310
35.6850 1.315
35.7016 1.342
35.7181 1.419
35.7347 1.353
35.7512 1.118
35.7678 1.315
35.7843 1.315
35.8009 1.414
35.8174 1.332
35.8339 1.151
35.8505 1.260
35.8670 1.211
35.8836 1.014
35.9001 1.184
35.9167 1.195
35.9332 1.101
35.9498 1.145
35.9663 0.926
35.9829 1.260
35.9994 1.173
36.0159 1.189
36.0325 1.255
36.0490 1.184
36.0656 1.304
36.0821 1.162
36.0987 1.173
36.1152 1.140
36.1318 1.200
36.1483 1.205
36.1649 1.074
36.1814 1.156
36.1979 1.101
36.2145 1.107
36.2310 1.260
36.2476 1.112
36.2641 1.107
36.2807 1.096
36.2972 1.195
36.3138 1.195
36.3303 1.216
36.3469 1.173
36.3634 1.189
36.3799 1.227
36.3965 1.151
36.4130 1.184
36.4296 0.997
36.4461 1.205
36.4627 1.195
36.4792 1.205
36.4958 1.162
36.5123 1.145
36.5289 1.321
36.5454 1.129
36.5619 1.047
36.5785 1.156
36.5950 1.162
36.6116 1.074
36.6281 1.162
36.6447 1.184
36.6612 1.195
36.6778 1.173
36.6943 1.227
36.7109 1.140
36.7274 1.184
36.7439 1.118
36.7605 1.129
36.7770 1.222
36.7936 1.173
36.8101 1.156
36.8267 1.173
36.8432 1.326
36.8598 1.140
36.8763 1.145
36.8929 1.030
36.9094 1.233
36.9259 1.359
36.9425 1.227
36.9590 1.249
36.9756 1.211
36.9921 1.189
37.0087 1.348
37.0252 1.304
37.0418 0.986
37.0583 1.299
37.0749 1.233
37.0914 1.216
37.1079 1.266
37.1245 1.255
37.1410 1.216
37.1576 1.260
37.1741 1.463
37.1907 1.595
37.2072 1.589
37.2238 1.633
37.2403 1.775
37.2569 1.863
37.2734 1.786
37.2899 2.005
37.3065 2.203
37.3230 2.225
37.3396 2.548
37.3561 2.740
37.3727 3.375
37.3892 3.419
37.4058 4.175
37.4223 4.630
37.4389 5.299
37.4554 6.274
37.4719 7.496
37.4885 9.288
37.5050 11.014
37.5216 13.452
37.5381 15.677
37.5547 18.800
37.5712 20.197
37.5878 19.907
37.6043 17.874
37.6209 15.162
37.6374 13.222
37.6539 12.789
37.6705 11.868
37.6870 10.186
37.7036 8.307
37.7201 6.060
37.7367 4.712
37.7532 3.523
37.7698 2.707
37.7863 2.395
37.8029 2.027
37.8194 2.088
37.8359 1.879
37.8525 1.830
37.8690 1.600
37.8856 1.578
37.9021 1.611
37.9187 1.715
37.9352 1.836
37.9518 1.633
37.9683 1.732
37.9848 1.605
38.0014 1.693
38.0179 1.518
38.0345 1.463
38.0510 1.304
38.0676 1.271
38.0841 1.200
38.1007 1.096
38.1172 1.260
38.1338 1.321
38.1503 1.068
38.1668 0.981
38.1834 1.123
38.1999 1.047
38.2165 1.079
38.2330 1.063
38.2496 1.025
38.2661 1.184
38.2827 1.096
38.2992 1.058
38.3158 1.041
38.3323 1.101
38.3488 0.981
38.3654 0.888
38.3819 1.030
38.3985 1.118
38.4150 1.112
38.4316 0.910
38.4481 0.942
38.4647 1.068
38.4812 0.981
38.4978 0.953
38.5143 0.937
38.5308 1.003
38.5474 1.063
38.5639 0.926
38.5805 1.079
38.5970 0.975
38.6136 1.079
38.6301 1.058
38.6467 1.008
38.6632 1.052
38.6798 1.090
38.6963 1.008
38.7128 1.036
38.7294 1.041
38.7459 1.101
38.7625 1.222
38.7790 1.068
38.7956 1.019
38.8121 1.184
38.8287 1.074
38.8452 1.058
38.8618 1.019
38.8783 1.041
38.8948 0.942
38.9114 0.981
38.9279 0.942
38.9445 0.970
38.9610 1.041
38.9776 0.992
38.9941 0.964
39.0107 1.019
39.0272 0.953
39.0438 0.877
39.0603 0.975
39.0768 0.893
39.0934 0.953
39.1099 0.970
39.1265 0.910
39.1430 0.970
39.1596 0.805
39.1761 0.948
39.1927 0.948
39.2092 0.997
39.2258 1.025
39.2423 0.860
39.2588 0.942
39.2754 0.855
39.2919 0.997
39.3085 1.047
39.3250 0.822
39.3416 0.921
39.3581 1.014
39.3747 0.789
39.3912 1.003
39.4078 0.915
39.4243 0.992
39.4408 0.932
39.4574 0.948
39.4739 0.899
39.4905 0.860
39.5070 0.882
39.5236 1.014
39.5401 1.019
39.5567 0.953
39.5732 0.855
39.5898 0.964
39.6063 0.866
39.6228 0.811
39.6394 1.036
39.6559 0.822
39.6725 0.800
39.6890 0.893
39.7056 0.904
39.7221 0.910
39.7387 0.888
39.7552 0.882
39.7718 0.948
39.7883 0.932
39.8048 0.860
39.8214 0.981
39.8379 0.921
39.8545 0.893
39.8710 1.068
39.8876 0.975
39.9041 0.942
39.9207 0.882
39.9372 0.888
39.9538 1.079
39.9703 0.970
39.9868 0.860
40.0034 0.866
40.0199 0.822
40.0365 0.855
40.0530 0.986
40.0696 0.959
40.0861 0.937
40.1027 0.899
40.1192 0.953
40.1358 0.915
40.1523 0.827
40.1688 1.019
40.1854 0.833
40.2019 0.893
40.2185 0.975
40.2350 0.734
40.2516 0.866
40.2681 0.701
40.2847 0.888
40.3012 0.866
40.3178 0.833
40.3343 0.904
40.3508 0.926
40.3674 0.959
40.3839 0.926
40.4005 0.838
40.4170 0.860
40.4336 0.844
40.4501 1.008
40.4667 0.718
40.4832 0.833
40.4998 0.849
40.5163 0.866
40.5328 0.767
40.5494 0.795
40.5659 0.871
40.5825 0.855
40.5990 0.871
40.6156 0.926
40.6321 0.975
40.6487 0.860
40.6652 1.041
40.6818 0.942
40.6983 0.767
40.7148 0.942
40.7314 0.822
40.7479 0.844
40.7645 0.877
40.7810 0.871
40.7976 0.937
40.8141 0.964
40.8307 0.926
40.8472 0.915
40.8637 0.784
40.8803 0.910
40.8968 0.844
40.9134 0.926
40.9299 0.937
40.9465 0.877
40.9630 0.827
40.9796 0.838
40.9961 0.942
41.0127 0.926
41.0292 0.910
41.0457 0.904
41.0623 0.849
41.0788 0.773
41.0954 0.800
41.1119 0.844
41.1285 0.844
41.1450 0.948
41.1616 0.970
41.1781 0.932
41.1947 1.019
41.2112 0.849
41.2277 1.036
41.2443 1.003
41.2608 0.860
41.2774 0.937
41.2939 0.942
41.3105 1.058
41.3270 1.173
41.3436 1.156
41.3601 1.145
41.3767 1.321
41.3932 1.156
41.4097 1.359
41.4263 1.359
41.4428 1.348
41.4594 1.359
41.4759 1.260
41.4925 1.392
41.5090 1.233
41.5256 1.178
41.5421 1.282
41.5587 1.140
41.5752 1.145
41.5917 1.277
41.6083 1.129
41.6248 0.855
41.6414 1.030
41.6579 1.112
41.6745 1.003
41.6910 1.134
41.7076 1.014
41.7241 1.014
41.7407 0.970
41.7572 1.068
41.7737 0.800
41.7903 1.058
41.8068 1.079
41.8234 1.003
41.8399 0.904
41.8565 1.145
41.8730 1.107
41.8896 1.019
41.9061 1.030
41.9227 1.030
41.9392 0.970
41.9557 0.992
41.9723 0.964
41.9888 0.992
42.0054 1.129
42.0219 1.085
42.0385 1.200
42.0550 1.151
42.0716 1.112
42.0881 1.047
42.1047 0.964
42.1212 1.047
42.1377 1.107
42.1543 1.063
42.1708 1.047
42.1874 1.003
42.2039 1.047
42.2205 1.211
42.2370 0.981
42.2536 1.227
42.2701 1.003
42.2867 1.205
42.3032 1.030
42.3197 1.255
42.3363 1.014
42.3528 1.162
42.3694 1.162
42.3859 1.244
42.4025 1.282
42.4190 1.173
42.4356 1.326
42.4521 1.134
42.4687 1.326
42.4852 1.386
42.5017 1.408
42.5183 1.282
42.5348 1.321
42.5514 1.370
42.5679 1.277
42.5845 1.271
42.6010 1.447
42.6176 1.715
42.6341 1.468
42.6507 1.770
42.6672 1.781
42.6837 1.797
42.7003 1.896
42.7168 2.022
42.7334 2.482
42.7499 2.542
42.7665 2.625
42.7830 3.058
42.7996 3.299
42.8161 3.622
42.8327 3.912
42.8492 4.647
42.8657 4.844
42.8823 5.677
42.8988 6.603
42.9154 7.195
42.9319 8.384
42.9485 9.962
42.9650 11.803
42.9816 13.907
42.9981 16.619
43.0147 20.877
43.0312 24.926
43.0477 30.170
43.0643 37.315
43.0808 41.847
43.0974 47.616
43.1139 48.362
43.1305 46.493
43.1470 39.041
43.1636 34.570
43.1801 30.170
43.1967 28.318
43.2132 27.074
43.2297 24.822
43.2463 21.627
43.2628 16.608
43.2794 11.600
43.2959 8.740
43.3125 6.444
43.3290 5.167
43.3456 4.071
43.3621 3.370
43.3787 3.167
43.3952 2.723
43.4117 2.526
43.4283 2.186
43.4448 1.962
43.4614 1.841
43.4779 1.836
43.4945 1.616
43.5110 1.830
43.5276 1.649
43.5441 1.622
43.5606 1.463
43.5772 1.458
43.5937 1.386
43.6103 1.288
43.6268 1.364
43.6434 1.249
43.6599 1.255
43.6765 1.233
43.6930 1.167
43.7096 1.107
43.7261 1.134
43.7426 1.112
43.7592 1.288
43.7757 1.249
43.7923 1.107
43.8088 1.036
43.8254 1.129
43.8419 1.047
43.8585 1.184
43.8750 0.992
43.8916 1.074
43.9081 0.849
43.9246 1.058
43.9412 1.030
43.9577 1.019
43.9743 1.047
43.9908 1.085
44.0074 0.975
44.0239 1.008
44.0405 0.975
44.0570 0.970
44.0736 1.003
44.0901 0.926
44.1066 1.019
44.1232 1.129
44.1397 0.959
44.1563 0.899
44.1728 1.003
44.1894 0.953
44.2059 0.937
44.2225 1.008
44.2390 0.970
44.2556 0.871
44.2721 0.921
44.2886 0.915
44.3052 0.855
44.3217 0.899
44.3383 0.997
44.3548 1.025
44.3714 0.904
44.3879 0.882
44.4045 0.789
44.4210 0.932
44.4376 0.910
44.4541 1.036
44.4706 0.877
44.4872 0.915
44.5037 0.816
44.5203 0.888
44.5368 0.844
44.5534 0.921
44.5699 0.997
44.5865 0.904
44.6030 0.997
44.6196 0.811
44.6361 0.855
44.6526 0.932
44.6692 0.833
44.6857 0.838
44.7023 0.986
44.7188 0.866
44.7354 0.915
44.7519 0.948
44.7685 0.805
44.7850 0.942
44.8016 0.948
44.8181 0.800
44.8346 0.986
44.8512 0.805
44.8677 0.811
44.8843 0.959
44.9008 0.833
44.9174 0.877
44.9339 0.833
44.9505 0.992
44.9670 0.860
44.9836 0.871
45.0001 0.888
45.0166 0.893
45.0332 0.800
45.0497 0.866
45.0663 0.942
45.0828 0.932
45.0994 0.767
45.1159 0.707
45.1325 0.811
45.1490 0.910
45.1656 0.822
45.1821 0.811
45.1986 0.860
45.2152 0.888
45.2317 0.838
45.2483 0.800
45.2648 0.822
45.2814 0.899
45.2979 0.855
45.3145 0.855
45.3310 0.712
45.3476 0.729
45.3641 0.773
45.3806 0.882
45.3972 0.723
45.4137 0.959
45.4303 0.756
45.4468 1.030
45.4634 0.838
45.4799 0.932
45.4965 0.701
45.5130 0.762
45.5296 0.822
45.5461 0.701
45.5626 0.712
45.5792 0.849
45.5957 0.871
45.6123 0.877
45.6288 0.778
45.6454 0.838
45.6619 0.805
45.6785 0.822
45.6950 0.822
45.7116 0.784
45.7281 0.855
45.7446 0.948
45.7612 0.953
45.7777 0.953
45.7943 1.008
45.8108 0.953
45.8274 1.003
45.8439 1.145
45.8605 1.211
45.8770 1.200
45.8936 1.260
45.9101 1.238
45.9266 1.211
45.9432 1.299
45.9597 1.227
45.9763 1.096
45.9928 1.255
46.0094 1.101
46.0259 1.058
46.0425 1.030
46.0590 0.800
46.0756 1.058
46.0921 0.986
46.1086 0.921
46.1252 0.773
46.1417 0.838
46.1583 0.729
46.1748 0.866
46.1914 0.729
46.2079 0.816
46.2245 0.696
46.2410 0.855
46.2575 0.773
46.2741 0.827
46.2906 0.668
46.3072 0.712
46.3237 0.888
46.3403 0.805
46.3568 0.756
46.3734 0.784
46.3899 0.778
46.4065 0.855
46.4230 0.789
46.4395 0.745
46.4561 0.767
46.4726 0.855
46.4892 0.745
46.5057 0.833
46.5223 0.778
46.5388 0.882
46.5554 0.696
46.5719 0.827
46.5885 0.745
46.6050 0.712
46.6215 0.707
46.6381 0.773
46.6546 0.734
46.6712 0.811
46.6877 0.701
46.7043 0.745
46.7208 0.712
46.7374 0.838
46.7539 0.882
46.7705 0.789
46.7870 0.674
46.8035 0.647
46.8201 0.860
46.8366 0.718
46.8532 0.762
46.8697 0.849
46.8863 0.827
46.9028 0.718
46.9194 0.767
46.9359 0.762
46.9525 0.696
46.9690 0.789
46.9855 0.756
47.0021 0.756
47.0186 0.778
47.0352 0.685
47.0517 0.663
47.0683 0.647
47.0848 0.729
47.1014 0.712
47.1179 0.679
47.1345 0.745
47.1510 0.712
47.1675 0.756
47.1841 0.800
47.2006 0.756
47.2172 0.756
47.2337 0.855
47.2503 0.647
47.2668 0.581
47.2834 0.800
47.2999 0.756
47.3165 0.701
47.3330 0.674
47.3495 0.723
47.3661 0.647
47.3826 0.668
47.3992 0.718
47.4157 0.729
47.4323 0.740
47.4488 0.641
47.4654 0.734
47.4819 0.833
47.4985 0.625
47.5150 0.718
47.5315 0.795
47.5481 0.740
47.5646 0.784
47.5812 0.674
47.5977 0.614
47.6143 0.641
47.6308 0.729
47.6474 0.712
47.6639 0.696
47.6805 0.707
47.6970 0.795
47.7135 0.800
47.7301 0.745
47.7466 0.827
47.7632 0.811
47.7797 0.668
47.7963 0.652
47.8128 0.658
47.8294 0.630
47.8459 0.729
47.8625 0.740
47.8790 0.701
47.8955 0.773
47.9121 0.855
47.9286 0.789
47.9452 0.701
47.9617 0.690
47.9783 0.696
47.9948 0.795
48.0114 0.712
48.0279 0.696
48.0445 0.668
48.0610 0.636
48.0775 0.773
48.0941 0.701
48.1106 0.712
48.1272 0.734
48.1437 0.718
48.1603 0.690
48.1768 0.647
48.1934 0.652
48.2099 0.707
48.2265 0.756
48.2430 0.652
48.2595 0.581
48.2761 0.679
48.2926 0.740
48.3092 0.625
48.3257 0.756
48.3423 0.674
48.3588 0.723
48.3754 0.745
48.3919 0.745
48.4085 0.668
48.4250 0.718
48.4415 0.674
48.4581 0.663
48.4746 0.636
48.4912 0.592
48.5077 0.658
48.5243 0.674
48.5408 0.636
48.5574 0.581
48.5739 0.597
48.5905 0.548
48.6070 0.663
48.6235 0.548
48.6401 0.586
48.6566 0.581
48.6732 0.701
48.6897 0.625
48.7063 0.773
48.7228 0.636
48.7394 0.674
48.7559 0.608
48.7725 0.668
48.7890 0.658
48.8055 0.756
48.8221 0.641
48.8386 0.696
48.8552 0.729
48.8717 0.619
48.8883 0.668
48.9048 0.674
48.9214 0.696
48.9379 0.586
48.9545 0.668
48.9710 0.762
48.9875 0.690
49.0041 0.778
49.0206 0.636
49.0372 0.647
49.0537 0.707
49.0703 0.559
49.0868 0.751
49.1034 0.658
49.1199 0.652
49.1364 0.619
49.1530 0.773
49.1695 0.559
49.1861 0.597
49.2026 0.729
49.2192 0.614
49.2357 0.559
49.2523 0.647
49.2688 0.734
49.2854 0.723
49.3019 0.707
49.3184 0.663
49.3350 0.636
49.3515 0.685
49.3681 0.614
49.3846 0.663
49.4012 0.592
49.4177 0.532
49.4343 0.679
49.4508 0.668
49.4674 0.542
49.4839 0.647
49.5004 0.767
49.5170 0.718
49.5335 0.592
49.5501 0.729
49.5666 0.762
49.5832 0.597
49.5997 0.668
49.6163 0.849
49.6328 0.630
49.6494 0.586
49.6659 0.784
49.6824 0.658
49.6990 0.740
49.7155 0.679
49.7321 0.696
49.7486 0.674
49.7652 0.773
49.7817 0.767
49.7983 0.745
49.8148 0.647
49.8314 0.696
49.8479 0.608
49.8644 0.625
49.8810 0.614
49.8975 0.685
49.9141 0.641
49.9306 0.740
49.9472 0.712
49.9637 0.668
49.9803 0.608
49.9968 0.718
50.0134 0.564
50.0299 0.592
50.0464 0.652
50.0630 0.690
50.0795 0.696
50.0961 0.597
50.1126 0.564
50.1292 0.762
50.1457 0.625
50.1623 0.647
50.1788 0.701
50.1954 0.712
50.2119 0.641
50.2284 0.778
50.2450 0.767
50.2615 0.718
50.2781 0.795
50.2946 0.597
50.3112 0.674
50.3277 0.701
50.3443 0.877
50.3608 0.685
50.3774 0.630
50.3939 0.712
50.4104 0.767
50.4270 0.767
50.4435 0.756
50.4601 0.608
50.4766 0.690
50.4932 0.614
50.5097 0.652
50.5263 0.800
50.5428 0.745
50.5594 0.685
50.5759 0.712
50.5924 0.674
50.6090 0.729
50.6255 0.784
50.6421 0.784
50.6586 0.685
50.6752 0.756
50.6917 0.734
50.7083 0.756
50.7248 0.751
50.7414 0.701
50.7579 0.773
50.7744 0.685
50.7910 0.734
50.8075 0.827
50.8241 0.762
50.8406 0.658
50.8572 0.647
50.8737 0.773
50.8903 0.811
50.9068 0.751
50.9234 0.723
50.9399 0.751
50.9564 0.740
50.9730 0.811
50.9895 0.811
51.0061 0.707
51.0226 0.690
51.0392 0.663
51.0557 0.838
51.0723 0.811
51.0888 0.805
51.1054 0.795
51.1219 0.882
51.1384 0.723
51.1550 0.789
51.1715 0.844
51.1881 0.838
51.2046 0.849
51.2212 0.767
51.2377 0.816
51.2543 0.723
51.2708 0.723
51.2874 0.866
51.3039 0.751
51.3204 0.833
51.3370 0.778
51.3535 0.762
51.3701 0.690
51.3866 0.762
51.4032 0.800
51.4197 0.838
51.4363 0.795
51.4528 0.844
51.4694 0.690
51.4859 0.860
51.5024 0.800
51.5190 0.784
51.5355 0.937
51.5521 0.844
51.5686 0.789
51.5852 0.904
51.6017 0.910
51.6183 0.833
51.6348 0.871
51.6514 0.926
51.6679 0.893
51.6844 0.975
51.7010 1.096
51.7175 0.953
51.7341 0.899
51.7506 0.942
51.7672 1.085
51.7837 1.222
51.8003 1.030
51.8168 1.178
51.8333 1.299
51.8499 1.436
51.8664 1.501
51.8830 1.578
51.8995 1.775
51.9161 1.786
51.9326 1.770
51.9492 2.225
51.9657 2.077
51.9823 2.608
51.9988 2.647
52.0153 3.189
52.0319 3.584
52.0484 4.433
52.0650 4.647
52.0815 5.342
52.0981 6.142
52.1146 6.899
52.1312 8.433
52.1477 10.077
52.1643 11.945
52.1808 14.247
52.1973 16.197
52.2139 18.542
52.2304 20.181
52.2470 19.819
52.2635 19.014
52.2801 16.301
52.2966 13.326
52.3132 12.219
52.3297 11.375
52.3463 10.789
52.3628 10.975
52.3793 11.063
52.3959 9.836
52.4124 8.323
52.4290 6.356
52.4455 4.767
52.4621 3.814
52.4786 2.921
52.4952 2.290
52.5117 1.995
52.5283 1.819
52.5448 1.458
52.5613 1.556
52.5779 1.556
52.5944 1.370
52.6110 1.189
52.6275 0.915
52.6441 1.074
52.6606 1.036
52.6772 1.041
52.6937 1.036
52.7103 0.888
52.7268 0.992
52.7433 0.915
52.7599 0.882
52.7764 0.893
52.7930 0.893
52.8095 0.789
52.8261 0.926
52.8426 0.833
52.8592 0.784
52.8757 0.849
52.8923 0.860
52.9088 0.844
52.9253 0.729
52.9419 0.784
52.9584 0.773
52.9750 0.855
52.9915 0.893
53.0081 0.844
53.0246 0.668
53.0412 0.712
53.0577 0.795
53.0743 0.789
53.0908 0.734
53.1073 0.685
53.1239 0.778
53.1404 0.729
53.1570 0.800
53.1735 0.800
53.1901 0.767
53.2066 0.773
53.2232 0.740
53.2397 0.745
53.2563 0.849
53.2728 0.784
53.2893 0.647
53.3059 0.762
53.3224 0.795
53.3390 0.663
53.3555 0.701
53.3721 0.647
53.3886 0.674
53.4052 0.712
53.4217 0.729
53.4383 0.756
53.4548 0.723
53.4713 0.553
53.4879 0.608
53.5044 0.592
53.5210 0.712
53.5375 0.696
53.5541 0.778
53.5706 0.811
53.5872 0.723
53.6037 0.679
53.6203 0.751
53.6368 0.795
53.6533 0.625
53.6699 0.630
53.6864 0.822
53.7030 0.608
53.7195 0.647
53.7361 0.625
53.7526 0.603
53.7692 0.636
53.7857 0.641
53.8023 0.685
53.8188 0.685
53.8353 0.647
53.8519 0.619
53.8684 0.751
53.8850 0.630
53.9015 0.685
53.9181 0.570
53.9346 0.641
53.9512 0.690
53.9677 0.701
53.9843 0.663
54.0008 0.740
54.0173 0.723
54.0339 0.647
54.0504 0.740
54.0670 0.597
54.0835 0.603
54.1001 0.701
54.1166 0.674
54.1332 0.723
54.1497 0.652
54.1663 0.701
54.1828 0.685
54.1993 0.619
54.2159 0.685
54.2324 0.647
54.2490 0.663
54.2655 0.652
54.2821 0.614
54.2986 0.597
54.3152 0.614
54.3317 0.532
54.3483 0.575
54.3648 0.679
54.3813 0.619
54.3979 0.679
54.4144 0.668
54.4310 0.707
54.4475 0.723
54.4641 0.696
54.4806 0.718
54.4972 0.773
54.5137 0.773
54.5302 0.636
54.5468 0.679
54.5633 0.608
54.5799 0.658
54.5964 0.532
54.6130 0.647
54.6295 0.625
54.6461 0.630
54.6626 0.586
54.6792 0.679
54.6957 0.696
54.7122 0.647
54.7288 0.608
54.7453 0.723
54.7619 0.674
54.7784 0.701
54.7950 0.636
54.8115 0.701
54.8281 0.701
54.8446 0.608
54.8612 0.690
54.8777 0.647
54.8942 0.586
54.9108 0.674
54.9273 0.608
54.9439 0.652
54.9604 0.592
54.9770 0.833
54.9935 0.723
55.0101 0.636
55.0266 0.696
55.0432 0.701
55.0597 0.658
55.0762 0.871
55.0928 0.751
55.1093 0.800
55.1259 0.773
55.1424 0.740
55.1590 0.778
55.1755 0.762
55.1921 0.795
55.2086 0.822
55.2252 0.630
55.2417 0.778
55.2582 0.723
55.2748 0.745
55.2913 0.784
55.3079 0.723
55.3244 0.658
55.3410 0.723
55.3575 0.800
55.3741 0.800
55.3906 0.712
55.4072 0.866
55.4237 0.729
55.4402 0.844
55.4568 0.668
55.4733 0.773
55.4899 0.762
55.5064 0.690
55.5230 0.690
55.5395 0.811
55.5561 0.718
55.5726 0.795
55.5892 0.707
55.6057 0.690
55.6222 0.784
55.6388 0.740
55.6553 0.756
55.6719 0.679
55.6884 0.762
55.7050 0.767
55.7215 0.679
55.7381 0.773
55.7546 0.740
55.7712 0.729
55.7877 0.707
55.8042 0.805
55.8208 0.767
55.8373 0.773
55.8539 0.712
55.8704 0.849
55.8870 0.707
55.9035 0.723
55.9201 0.860
55.9366 0.860
55.9532 0.778
55.9697 0.767
55.9862 0.795
56.0028 0.805
56.0193 0.773
56.0359 0.910
56.0524 0.762
56.0690 0.701
56.0855 0.844
56.1021 0.647
56.1186 0.778
56.1352 0.849
56.1517 0.784
56.1682 0.701
56.1848 0.751
56.2013 0.756
56.2179 0.773
56.2344 0.888
56.2510 0.942
56.2675 0.838
56.2841 0.800
56.3006 0.844
56.3172 0.866
56.3337 0.778
56.3502 0.822
56.3668 0.822
56.3833 0.915
56.3999 0.970
56.4164 0.970
56.4330 1.090
56.4495 1.030
56.4661 1.030
56.4826 1.025
56.4992 0.937
56.5157 1.030
56.5322 0.953
56.5488 1.052
56.5653 1.222
56.5819 1.090
56.5984 1.123
56.6150 1.255
56.6315 1.227
56.6481 1.266
56.6646 1.551
56.6812 1.562
56.6977 1.693
56.7142 1.704
56.7308 2.033
56.7473 2.175
56.7639 2.197
56.7804 2.416
56.7970 2.581
56.8135 2.953
56.8301 3.058
56.8466 3.595
56.8632 3.764
56.8797 4.422
56.8962 4.696
56.9128 5.408
56.9293 6.219
56.9459 6.855
56.9624 7.995
56.9790 9.551
56.9955 10.674
57.0121 12.822
57.0286 14.970
57.0452 18.482
57.0617 21.759
57.0782 25.227
57.0948 29.156
57.1113 34.334
57.1279 36.690
57.1444 37.397
57.1610 34.652
57.1775 30.510
57.1941 26.236
57.2106 21.315
57.2272 19.244
57.2437 19.085
57.2602 19.101
57.2768 19.633
57.2933 19.260
57.3099 19.096
57.3264 16.252
57.3430 12.230
57.3595 8.658
57.3761 6.778
57.3926 4.899
57.4091 4.038
57.4257 3.205
57.4422 2.795
57.4588 2.652
57.4753 2.236
57.4919 2.066
57.5084 1.803
57.5250 1.649
57.5415 1.748
57.5581 1.479
57.5746 1.474
57.5911 1.447
57.6077 1.386
57.6242 1.304
57.6408 1.299
57.6573 1.260
57.6739 1.244
57.6904 1.233
57.7070 1.068
57.7235 1.123
57.7401 1.068
57.7566 1.041
57.7731 0.942
57.7897 0.948
57.8062 1.025
57.8228 0.953
57.8393 0.849
57.8559 0.899
57.8724 0.877
57.8890 0.910
57.9055 0.778
57.9221 0.904
57.9386 0.942
57.9551 0.800
57.9717 0.805
57.9882 0.866
58.0048 0.882
58.0213 0.844
58.0379 0.893
58.0544 0.915
58.0710 0.789
58.0875 0.877
58.1041 0.893
58.1206 0.860
58.1371 0.712
58.1537 0.811
58.1702 0.712
58.1868 0.696
58.2033 0.679
58.2199 0.762
58.2364 0.762
58.2530 0.773
58.2695 0.745
58.2861 0.723
58.3026 0.926
58.3191 0.805
58.3357 0.734
58.3522 0.751
58.3688 0.827
58.3853 0.696
58.4019 0.723
58.4184 0.696
58.4350 0.734
58.4515 0.718
58.4681 0.734
58.4846 0.707
58.5011 0.630
58.5177 0.658
58.5342 0.658
58.5508 0.877
58.5673 0.690
58.5839 0.767
58.6004 0.723
58.6170 0.805
58.6335 0.652
58.6501 0.751
58.6666 0.685
58.6831 0.723
58.6997 0.668
58.7162 0.685
58.7328 0.608
58.7493 0.860
58.7659 0.734
58.7824 0.718
58.7990 0.663
58.8155 0.751
58.8321 0.723
58.8486 0.668
58.8651 0.784
58.8817 0.619
58.8982 0.751
58.9148 0.668
58.9313 0.690
58.9479 0.619
58.9644 0.647
58.9810 0.690
58.9975 0.751
59.0141 0.712
59.0306 0.805
59.0471 0.805
59.0637 0.630
59.0802 0.805
59.0968 0.690
59.1133 0.811
59.1299 0.767
59.1464 0.762
59.1630 0.701
59.1795 0.904
59.1961 0.877
59.2126 0.981
59.2291 0.762
59.2457 1.025
59.2622 1.079
59.2788 1.129
59.2953 1.227
59.3119 1.156
59.3284 1.403
59.3450 1.485
59.3615 1.512
59.3781 1.529
59.3946 1.573
59.4111 1.348
59.4277 1.458
59.4442 1.260
59.4608 1.173
59.4773 1.008
59.4939 1.293
59.5104 1.156
59.5270 1.085
59.5435 1.151
59.5601 1.047
59.5766 0.959
59.5931 0.986
59.6097 0.805
59.6262 0.849
59.6428 0.701
59.6593 0.734
59.6759 0.723
59.6924 0.685
59.7090 0.668
59.7255 0.740
59.7421 0.493
59.7586 0.745
59.7751 0.581
59.7917 0.663
59.8082 0.647
59.8248 0.663
59.8413 0.608
59.8579 0.690
59.8744 0.707
59.8910 0.652
59.9075 0.658
59.9241 0.707
59.9406 0.647
59.9571 0.696
59.9737 0.707
59.9902 0.674
60.0068 0.647
60.0233 0.630
60.0399 0.685
60.0564 0.647
60.0730 0.674
60.0895 0.756
60.1060 0.773
60.1226 0.679
60.1391 0.679
60.1557 0.592
60.1722 0.636
60.1888 0.625
60.2053 0.641
60.2219 0.767
60.2384 0.679
60.2550 0.696
60.2715 0.712
60.2880 0.641
60.3046 0.630
60.3211 0.734
60.3377 0.712
60.3542 0.723
60.3708 0.844
60.3873 0.701
60.4039 0.795
60.4204 0.844
60.4370 0.740
60.4535 0.762
60.4700 0.871
60.4866 0.838
60.5031 0.926
60.5197 0.805
60.5362 1.041
60.5528 1.008
60.5693 1.003
60.5859 1.277
60.6024 1.162
60.6190 1.249
60.6355 1.375
60.6520 1.430
60.6686 1.490
60.6851 1.770
60.7017 1.814
60.7182 2.093
60.7348 2.466
60.7513 2.564
60.7679 2.762
60.7844 2.805
60.8010 2.893
60.8175 3.112
60.8340 3.156
60.8506 3.414
60.8671 3.699
60.8837 3.929
60.9002 4.077
60.9168 4.044
60.9333 3.649
60.9499 3.184
60.9664 2.866
60.9830 2.296
60.9995 2.230
61.0160 2.066
61.0326 2.170
61.0491 2.362
61.0657 2.279
61.0822 1.951
61.0988 1.710
61.1153 1.496
61.1319 1.310
61.1484 1.282
61.1650 0.975
61.1815 0.981
61.1980 0.827
61.2146 0.789
61.2311 0.756
61.2477 0.811
61.2642 0.827
61.2808 0.773
61.2973 0.767
61.3139 0.679
61.3304 0.723
61.3470 0.608
61.3635 0.564
61.3800 0.652
61.3966 0.581
61.4131 0.652
61.4297 0.663
61.4462 0.586
61.4628 0.619
61.4793 0.663
61.4959 0.630
61.5124 0.625
61.5290 0.603
61.5455 0.586
61.5620 0.734
61.5786 0.614
61.5951 0.592
61.6117 0.707
61.6282 0.647
61.6448 0.729
61.6613 0.619
61.6779 0.548
61.6944 0.647
61.7110 0.559
61.7275 0.636
61.7440 0.597
61.7606 0.581
61.7771 0.493
61.7937 0.679
61.8102 0.729
61.8268 0.663
61.8433 0.614
61.8599 0.636
61.8764 0.668
61.8930 0.614
61.9095 0.690
61.9260 0.581
61.9426 0.608
61.9591 0.559
61.9757 0.597
61.9922 0.636
62.0088 0.515
62.0253 0.658
62.0419 0.608
62.0584 0.603
62.0750 0.641
62.0915 0.575
62.1080 0.614
62.1246 0.614
62.1411 0.663
62.1577 0.625
62.1742 0.603
62.1908 0.570
62.2073 0.608
62.2239 0.658
62.2404 0.532
62.2570 0.564
62.2735 0.504
62.2900 0.553
62.3066 0.630
62.3231 0.553
62.3397 0.570
62.3562 0.614
62.3728 0.630
62.3893 0.570
62.4059 0.603
62.4224 0.570
62.4390 0.597
62.4555 0.641
62.4720 0.581
62.4886 0.488
62.5051 0.570
62.5217 0.603
62.5382 0.625
62.5548 0.526
62.5713 0.460
62.5879 0.548
62.6044 0.559
62.6210 0.625
62.6375 0.553
62.6540 0.630
62.6706 0.559
62.6871 0.603
62.7037 0.564
62.7202 0.592
62.7368 0.636
62.7533 0.619
62.7699 0.641
62.7864 0.690
62.8029 0.619
62.8195 0.570
62.8360 0.614
62.8526 0.521
62.8691 0.482
62.8857 0.597
62.9022 0.499
62.9188 0.592
62.9353 0.570
62.9519 0.647
62.9684 0.526
62.9849 0.542
63.0015 0.570
63.0180 0.575
63.0346 0.581
63.0511 0.510
63.0677 0.570
63.0842 0.641
63.1008 0.504
63.1173 0.553
63.1339 0.504
63.1504 0.636
63.1669 0.499
63.1835 0.532
63.2000 0.658
63.2166 0.619
63.2331 0.718
63.2497 0.542
63.2662 0.559
63.2828 0.603
63.2993 0.455
63.3159 0.570
63.3324 0.668
63.3489 0.553
63.3655 0.542
63.3820 0.466
63.3986 0.488
63.4151 0.510
63.4317 0.608
63.4482 0.619
63.4648 0.553
63.4813 0.564
63.4979 0.586
63.5144 0.548
63.5309 0.586
63.5475 0.597
63.5640 0.564
63.5806 0.614
63.5971 0.564
63.6137 0.614
63.6302 0.789
63.6468 0.630
63.6633 0.614
63.6799 0.504
63.6964 0.570
63.7129 0.575
63.7295 0.575
63.7460 0.515
63.7626 0.542
63.7791 0.679
63.7957 0.553
63.8122 0.559
63.8288 0.581
63.8453 0.515
63.8619 0.630
63.8784 0.663
63.8949 0.548
63.9115 0.548
63.9280 0.597
63.9446 0.548
63.9611 0.614
63.9777 0.586
63.9942 0.679
64.0108 0.564
64.0273 0.658
64.0439 0.674
64.0604 0.592
64.0769 0.647
64.0935 0.564
64.1100 0.614
64.1266 0.570
64.1431 0.625
64.1597 0.674
64.1762 0.515
64.1928 0.548
64.2093 0.663
64.2259 0.690
64.2424 0.537
64.2589 0.690
64.2755 0.592
64.2920 0.647
64.3086 0.663
64.3251 0.532
64.3417 0.592
64.3582 0.597
64.3748 0.619
64.3913 0.674
64.4079 0.592
64.4244 0.603
64.4409 0.619
64.4575 0.652
64.4740 0.630
64.4906 0.603
64.5071 0.614
64.5237 0.647
64.5402 0.504
64.5568 0.647
64.5733 0.537
64.5899 0.619
64.6064 0.564
64.6229 0.641
64.6395 0.619
64.6560 0.521
64.6726 0.575
64.6891 0.581
64.7057 0.745
64.7222 0.603
64.7388 0.553
64.7553 0.636
64.7719 0.581
64.7884 0.707
64.8049 0.575
64.8215 0.597
64.8380 0.668
64.8546 0.586
64.8711 0.564
64.8877 0.729
64.9042 0.696
64.9208 0.581
64.9373 0.658
64.9539 0.701
64.9704 0.641
64.9869 0.729
65.0035 0.668
65.0200 0.712
65.0366 0.641
65.0531 0.696
65.0697 0.619
65.0862 0.548
65.1028 0.652
65.1193 0.592
65.1359 0.504
65.1524 0.723
65.1689 0.674
65.1855 0.718
65.2020 0.614
65.2186 0.658
65.2351 0.740
65.2517 0.679
65.2682 0.641
65.2848 0.778
65.3013 0.701
65.3179 0.707
65.3344 0.663
65.3509 0.805
65.3675 0.789
65.3840 0.822
65.4006 0.734
65.4171 0.767
65.4337 0.696
65.4502 0.751
65.4668 0.773
65.4833 0.784
65.4999 0.718
65.5164 0.866
65.5329 0.745
65.5495 0.740
65.5660 0.833
65.5826 0.948
65.5991 0.975
65.6157 1.052
65.6322 0.948
65.6488 1.063
65.6653 0.888
65.6818 1.074
65.6984 1.244
65.7149 1.293
65.7315 1.216
65.7480 1.578
65.7646 1.458
65.7811 1.644
65.7977 1.655
65.8142 1.786
65.8308 1.929
65.8473 2.329
65.8638 2.362
65.8804 2.838
65.8969 2.778
65.9135 3.216
65.9300 3.868
65.9466 4.241
65.9631 4.679
65.9797 5.841
65.9962 6.827
66.0128 7.710
66.0293 8.953
66.0458 10.055
66.0624 11.863
66.0789 12.718
66.0955 13.205
66.1120 13.397
66.1286 12.521
66.1451 10.400
66.1617 8.658
66.1782 7.496
66.1948 6.340
66.2113 6.362
66.2278 6.400
66.2444 6.822
66.2609 7.321
66.2775 7.151
66.2940 6.795
66.3106 6.219
66.3271 5.293
66.3437 4.181
66.3602 3.458
66.3768 2.427
66.3933 2.181
66.4098 1.655
66.4264 1.775
66.4429 1.430
66.4595 1.288
66.4760 1.353
66.4926 1.162
66.5091 1.222
66.5257 1.118
66.5422 0.959
66.5588 0.910
66.5753 1.025
66.5918 0.833
66.6084 0.942
66.6249 1.014
66.6415 0.877
66.6580 0.904
66.6746 0.910
66.6911 0.877
66.7077 0.866
66.7242 0.778
66.7408 0.888
66.7573 0.910
66.7738 0.975
66.7904 0.904
66.8069 0.953
66.8235 0.816
66.8400 0.800
66.8566 0.827
66.8731 0.805
66.8897 0.899
66.9062 0.795
66.9228 0.860
66.9393 0.855
66.9558 0.860
66.9724 0.849
66.9889 0.882
67.0055 0.932
67.0220 0.899
67.0386 0.899
67.0551 0.707
67.0717 0.762
67.0882 0.767
67.1048 0.893
67.1213 0.729
67.1378 0.915
67.1544 0.756
67.1709 0.975
67.1875 0.866
67.2040 0.970
67.2206 0.932
67.2371 0.942
67.2537 0.975
67.2702 1.003
67.2868 1.184
67.3033 1.107
67.3198 1.255
67.3364 1.381
67.3529 1.288
67.3695 1.403
67.3860 1.386
67.4026 1.699
67.4191 1.622
67.4357 1.797
67.4522 1.956
67.4688 2.142
67.4853 2.016
67.5018 2.488
67.5184 2.564
67.5349 3.112
67.5515 3.238
67.5680 3.605
67.5846 4.460
67.6011 4.921
67.6177 5.468
67.6342 6.164
67.6508 7.299
67.6673 8.663
67.6838 9.534
67.7004 11.255
67.7169 13.003
67.7335 15.797
67.7500 17.370
67.7666 19.079
67.7831 19.474
67.7997 19.288
67.8162 17.644
67.8328 14.636
67.8493 12.679
67.8658 9.732
67.8824 9.184
67.8989 9.008
67.9155 8.773
67.9320 9.436
67.9486 10.060
67.9651 10.170
67.9817 10.707
67.9982 8.986
68.0148 8.225
68.0313 6.115
68.0478 4.712
68.0644 3.863
68.0809 3.074
68.0975 2.521
68.1140 2.148
68.1306 1.879
68.1471 1.726
68.1637 1.501
68.1802 1.348
68.1968 1.364
68.2133 1.375
68.2298 1.058
68.2464 0.948
68.2629 1.041
68.2795 1.030
68.2960 1.085
68.3126 0.893
68.3291 0.871
68.3457 0.849
68.3622 0.871
68.3787 0.904
68.3953 0.871
68.4118 0.816
68.4284 0.762
68.4449 0.800
68.4615 0.767
68.4780 0.773
68.4946 0.784
68.5111 0.707
68.5277 0.701
68.5442 0.674
68.5607 0.773
68.5773 0.751
68.5938 0.696
68.6104 0.636
68.6269 0.614
68.6435 0.581
68.6600 0.647
68.6766 0.674
68.6931 0.668
68.7097 0.696
68.7262 0.860
68.7427 0.647
68.7593 0.729
68.7758 0.679
68.7924 0.663
68.8089 0.619
68.8255 0.647
68.8420 0.619
68.8586 0.630
68.8751 0.647
68.8917 0.630
68.9082 0.668
68.9247 0.630
68.9413 0.537
68.9578 0.641
68.9744 0.712
68.9909 0.641
69.0075 0.641
69.0240 0.575
69.0406 0.674
69.0571 0.603
69.0737 0.658
69.0902 0.515
69.1067 0.570
69.1233 0.603
69.1398 0.630
69.1564 0.658
69.1729 0.608
69.1895 0.581
69.2060 0.608
69.2226 0.619
69.2391 0.553
69.2557 0.603
69.2722 0.641
69.2887 0.537
69.3053 0.553
69.3218 0.532
69.3384 0.548
69.3549 0.663
69.3715 0.630
69.3880 0.521
69.4046 0.526
69.4211 0.526
69.4377 0.515
69.4542 0.608
69.4707 0.521
69.4873 0.586
69.5038 0.564
69.5204 0.625
69.5369 0.564
69.5535 0.685
69.5700 0.608
69.5866 0.614
69.6031 0.663
69.6197 0.745
69.6362 0.630
69.6527 0.586
69.6693 0.641
69.6858 0.658
69.7024 0.597
69.7189 0.570
69.7355 0.575
69.7520 0.751
69.7686 0.619
69.7851 0.668
69.8017 0.619
69.8182 0.619
69.8347 0.712
69.8513 0.756
69.8678 0.658
69.8844 0.827
69.9009 0.756
69.9175 0.773
69.9340 0.871
69.9506 0.822
69.9671 0.970
69.9837 0.893
70.0002 0.899
