'Id: "" Comment: "" Operator: "Administrator" Anode: "Cu" Scantype: "Locked Coupled" TimePerStep: "182.5" X: "0" Y: "0" Z: "0" 
20.0000 2.625
20.0165 2.449
20.0331 2.274
20.0496 2.285
20.0662 2.575
20.0827 2.477
20.0993 2.444
20.1158 2.499
20.1324 2.411
20.1489 2.356
20.1655 2.367
20.1820 2.225
20.1985 2.378
20.2151 2.181
20.2316 2.416
20.2482 2.427
20.2647 2.510
20.2813 2.186
20.2978 2.351
20.3144 2.236
20.3309 2.181
20.3475 2.471
20.3640 2.115
20.3805 2.323
20.3971 2.351
20.4136 2.395
20.4302 2.296
20.4467 2.373
20.4633 2.241
20.4798 2.334
20.4964 2.285
20.5129 2.384
20.5295 2.340
20.5460 2.148
20.5625 2.225
20.5791 2.214
20.5956 2.247
20.6122 2.329
20.6287 2.362
20.6453 2.137
20.6618 2.181
20.6784 2.159
20.6949 2.241
20.7115 2.186
20.7280 2.307
20.7445 2.088
20.7611 2.225
20.7776 2.356
20.7942 2.038
20.8107 2.449
20.8273 2.121
20.8438 2.247
20.8604 2.219
20.8769 2.110
20.8935 2.170
20.9100 2.137
20.9265 2.493
20.9431 2.181
20.9596 2.181
20.9762 2.142
20.9927 2.329
21.0093 2.077
21.0258 2.290
21.0424 2.132
21.0589 2.022
21.0755 2.433
21.0920 2.521
21.1085 2.175
21.1251 1.989
21.1416 1.984
21.1582 2.011
21.1747 2.132
21.1913 2.000
21.2078 2.395
21.2244 2.066
21.2409 2.356
21.2575 2.214
21.2740 2.422
21.2905 2.236
21.3071 2.241
21.3236 2.290
21.3402 2.230
21.3567 2.181
21.3733 2.219
21.3898 2.268
21.4064 2.093
21.4229 2.088
21.4394 2.126
21.4560 2.312
21.4725 2.230
21.4891 2.066
21.5056 2.263
21.5222 2.038
21.5387 2.033
21.5553 2.219
21.5718 2.137
21.5884 2.077
21.6049 2.203
21.6214 2.000
21.6380 2.044
21.6545 1.995
21.6711 2.274
21.6876 2.060
21.7042 2.153
21.7207 2.208
21.7373 2.241
21.7538 2.093
21.7704 2.460
21.7869 2.236
21.8034 2.033
21.8200 2.230
21.8365 2.274
21.8531 2.197
21.8696 1.940
21.8862 2.077
21.9027 2.110
21.9193 2.186
21.9358 2.159
21.9524 2.307
21.9689 2.044
21.9854 2.208
22.0020 2.181
22.0185 2.137
22.0351 2.088
22.0516 1.940
22.0682 2.093
22.0847 2.340
22.1013 1.890
22.1178 2.126
22.1344 2.088
22.1509 2.000
22.1674 2.104
22.1840 1.995
22.2005 2.082
22.2171 2.164
22.2336 2.181
22.2502 2.132
22.2667 1.819
22.2833 1.890
22.2998 2.142
22.3164 2.137
22.3329 1.984
22.3494 1.879
22.3660 2.110
22.3825 2.055
22.3991 2.060
22.4156 1.973
22.4322 2.038
22.4487 1.956
22.4653 1.967
22.4818 1.989
22.4984 1.929
22.5149 1.978
22.5314 1.978
22.5480 1.984
22.5645 2.066
22.5811 1.852
22.5976 1.940
22.6142 2.022
22.6307 2.104
22.6473 1.973
22.6638 1.868
22.6804 1.962
22.6969 2.005
22.7134 1.951
22.7300 1.956
22.7465 2.049
22.7631 1.830
22.7796 2.082
22.7962 1.879
22.8127 2.027
22.8293 1.775
22.8458 1.951
22.8624 2.115
22.8789 1.962
22.8954 2.181
22.9120 2.066
22.9285 1.879
22.9451 2.016
22.9616 1.923
22.9782 1.978
22.9947 2.011
23.0113 2.175
23.0278 2.110
23.0444 1.984
23.0609 2.159
23.0774 2.000
23.0940 1.951
23.1105 1.967
23.1271 1.934
23.1436 1.863
23.1602 2.049
23.1767 2.049
23.1933 1.934
23.2098 1.984
23.2264 1.852
23.2429 1.951
23.2594 2.016
23.2760 2.088
23.2925 2.088
23.3091 2.121
23.3256 1.945
23.3422 1.978
23.3587 1.989
23.3753 2.060
23.3918 1.907
23.4084 1.879
23.4249 2.005
23.4414 1.967
23.4580 2.016
23.4745 1.940
23.4911 1.819
23.5076 1.863
23.5242 2.005
23.5407 1.748
23.5573 1.879
23.5738 1.956
23.5904 1.989
23.6069 2.033
23.6234 1.847
23.6400 1.879
23.6565 1.967
23.6731 1.863
23.6896 1.808
23.7062 1.858
23.7227 1.732
23.7393 1.863
23.7558 1.797
23.7724 1.912
23.7889 1.847
23.8054 1.912
23.8220 1.852
23.8385 1.907
23.8551 1.962
23.8716 2.318
23.8882 1.890
23.9047 1.918
23.9213 2.005
23.9378 1.923
23.9544 2.082
23.9709 2.137
23.9874 2.071
24.0040 1.863
24.0205 1.945
24.0371 1.984
24.0536 1.923
24.0702 2.164
24.0867 2.142
24.1033 2.077
24.1198 2.247
24.1364 2.290
24.1529 2.093
24.1694 2.290
24.1860 2.236
24.2025 2.296
24.2191 2.340
24.2356 2.433
24.2522 2.307
24.2687 2.553
24.2853 2.186
24.3018 2.197
24.3183 2.290
24.3349 2.274
24.3514 2.285
24.3680 2.395
24.3845 2.400
24.4011 2.548
24.4176 2.384
24.4342 2.400
24.4507 2.433
24.4673 2.449
24.4838 2.225
24.5003 2.411
24.5169 2.559
24.5334 2.290
24.5500 2.647
24.5665 2.416
24.5831 2.482
24.5996 2.444
24.6162 2.641
24.6327 2.641
24.6493 2.586
24.6658 2.581
24.6823 2.405
24.6989 2.663
24.7154 2.707
24.7320 2.378
24.7485 2.690
24.7651 2.805
24.7816 2.849
24.7982 2.614
24.8147 2.532
24.8313 2.427
24.8478 2.652
24.8643 2.674
24.8809 2.575
24.8974 2.729
24.9140 2.674
24.9305 2.729
24.9471 2.559
24.9636 2.614
24.9802 2.860
24.9967 2.674
25.0133 2.893
25.0298 2.877
25.0463 2.762
25.0629 2.778
25.0794 2.849
25.0960 2.833
25.1125 2.981
25.1291 3.151
25.1456 3.090
25.1622 3.337
25.1787 3.589
25.1953 3.529
25.2118 3.682
25.2283 4.126
25.2449 4.340
25.2614 4.663
25.2780 5.030
25.2945 5.649
25.3111 6.373
25.3276 7.523
25.3442 9.200
25.3607 10.953
25.3773 13.397
25.3938 16.564
25.4103 20.910
25.4269 26.225
25.4434 31.578
25.4600 35.244
25.4765 37.584
25.4931 34.521
25.5096 31.178
25.5262 27.047
25.5427 23.441
25.5593 18.384
25.5758 13.989
25.5923 10.340
25.6089 7.896
25.6254 6.301
25.6420 5.238
25.6585 4.433
25.6751 3.775
25.6916 3.545
25.7082 3.266
25.7247 3.266
25.7413 3.134
25.7578 2.822
25.7743 2.877
25.7909 3.090
25.8074 2.663
25.8240 2.460
25.8405 2.663
25.8571 2.707
25.8736 2.477
25.8902 2.570
25.9067 2.433
25.9233 2.153
25.9398 2.384
25.9563 2.455
25.9729 2.636
25.9894 2.186
26.0060 2.301
26.0225 2.318
26.0391 2.296
26.0556 2.241
26.0722 2.389
26.0887 2.345
26.1053 2.274
26.1218 2.296
26.1383 2.142
26.1549 2.378
26.1714 2.307
26.1880 2.060
26.2045 2.471
26.2211 2.132
26.2376 2.153
26.2542 2.225
26.2707 2.482
26.2873 2.312
26.3038 2.258
26.3203 2.022
26.3369 2.038
26.3534 2.142
26.3700 2.066
26.3865 2.159
26.4031 2.236
26.4196 2.121
26.4362 1.995
26.4527 2.066
26.4693 2.230
26.4858 2.121
26.5023 1.923
26.5189 1.995
26.5354 2.137
26.5520 2.060
26.5685 1.973
26.5851 2.077
26.6016 2.175
26.6182 1.973
26.6347 2.016
26.6513 2.164
26.6678 2.104
26.6843 1.978
26.7009 2.022
26.7174 2.236
26.7340 2.148
26.7505 2.093
26.7671 1.830
26.7836 2.044
26.8002 1.693
26.8167 2.044
26.8333 1.945
26.8498 1.868
26.8663 2.055
26.8829 1.912
26.8994 2.044
26.9160 1.989
26.9325 2.011
26.9491 2.148
26.9656 2.005
26.9822 1.901
26.9987 2.044
27.0152 1.868
27.0318 1.786
27.0483 2.088
27.0649 1.710
27.0814 1.890
27.0980 1.890
27.1145 2.011
27.1311 1.715
27.1476 1.929
27.1642 1.901
27.1807 1.825
27.1972 1.874
27.2138 2.033
27.2303 1.984
27.2469 1.836
27.2634 1.923
27.2800 1.841
27.2965 1.847
27.3131 1.764
27.3296 2.027
27.3462 1.912
27.3627 1.852
27.3792 1.863
27.3958 1.923
27.4123 1.819
27.4289 1.819
27.4454 1.775
27.4620 1.660
27.4785 1.764
27.4951 1.797
27.5116 1.627
27.5282 1.775
27.5447 1.764
27.5612 1.896
27.5778 2.005
27.5943 1.825
27.6109 1.967
27.6274 1.710
27.6440 1.655
27.6605 1.863
27.6771 1.808
27.6936 1.879
27.7102 1.660
27.7267 1.912
27.7432 1.825
27.7598 1.753
27.7763 1.907
27.7929 1.770
27.8094 1.600
27.8260 1.660
27.8425 1.803
27.8591 1.764
27.8756 1.737
27.8922 1.901
27.9087 1.671
27.9252 1.644
27.9418 1.792
27.9583 1.638
27.9749 1.726
27.9914 1.507
28.0080 1.704
28.0245 1.786
28.0411 1.693
28.0576 1.825
28.0742 1.688
28.0907 1.748
28.1072 1.704
28.1238 1.523
28.1403 1.699
28.1569 1.600
28.1734 1.545
28.1900 1.792
28.2065 1.660
28.2231 1.600
28.2396 1.726
28.2562 1.660
28.2727 1.584
28.2892 1.627
28.3058 1.759
28.3223 1.693
28.3389 1.523
28.3554 1.556
28.3720 1.545
28.3885 1.600
28.4051 1.611
28.4216 1.616
28.4382 1.567
28.4547 1.430
28.4712 1.397
28.4878 1.682
28.5043 1.627
28.5209 1.463
28.5374 1.463
28.5540 1.616
28.5705 1.671
28.5871 1.562
28.6036 1.430
28.6202 1.556
28.6367 1.479
28.6532 1.468
28.6698 1.364
28.6863 1.578
28.7029 1.474
28.7194 1.518
28.7360 1.490
28.7525 1.485
28.7691 1.474
28.7856 1.512
28.8022 1.458
28.8187 1.600
28.8352 1.523
28.8518 1.419
28.8683 1.452
28.8849 1.496
28.9014 1.430
28.9180 1.342
28.9345 1.397
28.9511 1.485
28.9676 1.523
28.9842 1.392
29.0007 1.277
29.0172 1.430
29.0338 1.584
29.0503 1.266
29.0669 1.353
29.0834 1.534
29.1000 1.414
29.1165 1.468
29.1331 1.562
29.1496 1.545
29.1662 1.315
29.1827 1.496
29.1992 1.359
29.2158 1.353
29.2323 1.381
29.2489 1.321
29.2654 1.474
29.2820 1.200
29.2985 1.496
29.3151 1.447
29.3316 1.518
29.3482 1.485
29.3647 1.310
29.3812 1.425
29.3978 1.573
29.4143 1.381
29.4309 1.458
29.4474 1.425
29.4640 1.507
29.4805 1.381
29.4971 1.342
29.5136 1.479
29.5302 1.375
29.5467 1.364
29.5632 1.348
29.5798 1.342
29.5963 1.540
29.6129 1.419
29.6294 1.458
29.6460 1.271
29.6625 1.397
29.6791 1.386
29.6956 1.419
29.7121 1.425
29.7287 1.282
29.7452 1.468
29.7618 1.353
29.7783 1.403
29.7949 1.321
29.8114 1.348
29.8280 1.381
29.8445 1.310
29.8611 1.414
29.8776 1.222
29.8941 1.430
29.9107 1.184
29.9272 1.173
29.9438 1.326
29.9603 1.348
29.9769 1.403
29.9934 1.375
30.0100 1.348
30.0265 1.545
30.0431 1.299
30.0596 1.403
30.0761 1.392
30.0927 1.441
30.1092 1.244
30.1258 1.326
30.1423 1.348
30.1589 1.238
30.1754 1.403
30.1920 1.337
30.2085 1.332
30.2251 1.200
30.2416 1.249
30.2581 1.227
30.2747 1.441
30.2912 1.244
30.3078 1.195
30.3243 1.299
30.3409 1.200
30.3574 1.304
30.3740 1.288
30.3905 1.260
30.4071 1.441
30.4236 1.386
30.4401 1.260
30.4567 1.205
30.4732 1.299
30.4898 1.310
30.5063 1.249
30.5229 1.299
30.5394 1.189
30.5560 1.282
30.5725 1.293
30.5891 1.156
30.6056 1.315
30.6221 1.277
30.6387 1.140
30.6552 1.288
30.6718 1.227
30.6883 1.381
30.7049 1.266
30.7214 1.140
30.7380 1.238
30.7545 1.216
30.7711 1.041
30.7876 1.145
30.8041 1.271
30.8207 1.386
30.8372 1.255
30.8538 1.310
30.8703 1.079
30.8869 1.205
30.9034 1.321
30.9200 1.332
30.9365 1.129
30.9531 1.195
30.9696 1.156
30.9861 1.200
31.0027 1.299
31.0192 1.123
31.0358 1.326
31.0523 1.222
31.0689 1.112
31.0854 1.304
31.1020 1.353
31.1185 1.277
31.1351 1.173
31.1516 1.255
31.1681 1.249
31.1847 1.145
31.2012 1.244
31.2178 1.326
31.2343 1.271
31.2509 1.227
31.2674 1.047
31.2840 1.299
31.3005 1.200
31.3171 1.074
31.3336 1.162
31.3501 1.282
31.3667 1.271
31.3832 1.118
31.3998 1.244
31.4163 1.162
31.4329 1.255
31.4494 1.288
31.4660 1.227
31.4825 1.321
31.4991 1.299
31.5156 1.162
31.5321 1.321
31.5487 1.244
31.5652 1.266
31.5818 1.271
31.5983 1.392
31.6149 1.260
31.6314 1.255
31.6480 1.107
31.6645 1.112
31.6811 1.140
31.6976 1.030
31.7141 1.090
31.7307 1.216
31.7472 1.068
31.7638 1.123
31.7803 1.140
31.7969 1.167
31.8134 1.145
31.8300 1.227
31.8465 1.227
31.8631 0.986
31.8796 1.200
31.8961 1.063
31.9127 1.238
31.9292 1.118
31.9458 1.047
31.9623 1.118
31.9789 1.123
31.9954 1.019
32.0120 1.025
32.0285 1.129
32.0451 1.090
32.0616 1.079
32.0781 1.041
32.0947 1.008
32.1112 1.205
32.1278 1.112
32.1443 1.244
32.1609 1.090
32.1774 1.041
32.1940 0.986
32.2105 1.310
32.2271 1.260
32.2436 1.052
32.2601 1.030
32.2767 1.079
32.2932 1.025
32.3098 1.058
32.3263 1.112
32.3429 1.151
32.3594 1.167
32.3760 1.090
32.3925 1.052
32.4091 0.997
32.4256 0.877
32.4421 1.014
32.4587 1.041
32.4752 1.151
32.4918 1.123
32.5083 1.184
32.5249 1.063
32.5414 1.063
32.5580 1.047
32.5745 0.942
32.5910 1.052
32.6076 1.112
32.6241 1.167
32.6407 1.090
32.6572 1.112
32.6738 1.112
32.6903 1.052
32.7069 1.173
32.7234 1.068
32.7400 1.129
32.7565 1.238
32.7730 1.047
32.7896 1.014
32.8061 0.970
32.8227 1.118
32.8392 0.981
32.8558 1.101
32.8723 1.140
32.8889 1.151
32.9054 1.047
32.9220 0.964
32.9385 1.014
32.9550 1.173
32.9716 1.047
32.9881 1.162
33.0047 1.052
33.0212 1.063
33.0378 1.074
33.0543 1.134
33.0709 1.162
33.0874 1.205
33.1040 1.058
33.1205 0.997
33.1370 1.041
33.1536 0.975
33.1701 1.145
33.1867 1.085
33.2032 0.888
33.2198 0.964
33.2363 1.118
33.2529 1.151
33.2694 1.019
33.2860 0.899
33.3025 0.992
33.3190 1.058
33.3356 1.145
33.3521 1.025
33.3687 1.151
33.3852 1.047
33.4018 1.134
33.4183 1.134
33.4349 1.134
33.4514 1.216
33.4680 1.118
33.4845 1.167
33.5010 1.063
33.5176 1.025
33.5341 1.047
33.5507 1.096
33.5672 1.030
33.5838 1.101
33.6003 1.090
33.6169 1.118
33.6334 1.195
33.6500 1.227
33.6665 1.167
33.6830 1.112
33.6996 1.151
33.7161 1.178
33.7327 1.244
33.7492 1.140
33.7658 1.134
33.7823 1.195
33.7989 1.342
33.8154 1.238
33.8320 1.140
33.8485 1.222
33.8650 1.447
33.8816 1.167
33.8981 1.238
33.9147 1.359
33.9312 1.205
33.9478 1.282
33.9643 1.266
33.9809 1.222
33.9974 1.321
34.0140 1.216
34.0305 1.260
34.0470 1.310
34.0636 1.288
34.0801 1.271
34.0967 1.310
34.1132 1.304
34.1298 1.436
34.1463 1.348
34.1629 1.233
34.1794 1.403
34.1960 1.315
34.2125 1.233
34.2290 1.370
34.2456 1.507
34.2621 1.381
34.2787 1.255
34.2952 1.447
34.3118 1.353
34.3283 1.534
34.3449 1.381
34.3614 1.573
34.3780 1.468
34.3945 1.512
34.4110 1.310
34.4276 1.595
34.4441 1.523
34.4607 1.616
34.4772 1.573
34.4938 1.819
34.5103 1.781
34.5269 1.622
34.5434 1.759
34.5600 1.852
34.5765 1.989
34.5930 2.153
34.6096 2.142
34.6261 2.416
34.6427 2.411
34.6592 2.860
34.6758 2.816
34.6923 3.003
34.7089 3.507
34.7254 3.989
34.7420 4.499
34.7585 4.416
34.7750 5.562
34.7916 6.438
34.8081 7.145
34.8247 8.444
34.8412 9.819
34.8578 11.452
34.8743 14.389
34.8909 17.556
34.9074 22.652
34.9240 28.082
34.9405 33.512
34.9570 41.951
34.9736 46.252
34.9901 49.512
35.0067 49.025
35.0232 44.164
35.0398 36.504
35.0563 33.479
35.0729 30.225
35.0894 26.416
35.1060 21.474
35.1225 16.674
35.1390 12.005
35.1556 8.723
35.1721 6.279
35.1887 4.778
35.2052 4.016
35.2218 3.227
35.2383 2.970
35.2549 2.734
35.2714 2.236
35.2879 2.367
35.3045 2.312
35.3210 1.890
35.3376 2.066
35.3541 1.858
35.3707 1.786
35.3872 1.677
35.4038 1.693
35.4203 1.611
35.4369 1.644
35.4534 1.633
35.4699 1.458
35.4865 1.496
35.5030 1.485
35.5196 1.578
35.5361 1.479
35.5527 1.304
35.5692 1.490
35.5858 1.173
35.6023 1.463
35.6189 1.381
35.6354 1.304
35.6519 1.238
35.6685 1.101
35.6850 1.216
35.7016 1.342
35.7181 1.304
35.7347 1.244
35.7512 1.260
35.7678 1.348
35.7843 1.255
35.8009 1.200
35.8174 1.167
35.8339 1.205
35.8505 1.299
35.8670 1.277
35.8836 1.222
35.9001 1.233
35.9167 1.238
35.9332 1.211
35.9498 1.014
35.9663 1.211
35.9829 1.008
35.9994 1.178
36.0159 1.107
36.0325 1.205
36.0490 1.216
36.0656 1.277
36.0821 1.041
36.0987 1.162
36.1152 1.156
36.1318 1.260
36.1483 1.129
36.1649 1.052
36.1814 1.304
36.1979 1.178
36.2145 1.123
36.2310 1.167
36.2476 0.959
36.2641 1.282
36.2807 1.118
36.2972 1.025
36.3138 1.118
36.3303 1.129
36.3469 1.200
36.3634 1.211
36.3799 1.074
36.3965 1.162
36.4130 1.036
36.4296 1.134
36.4461 1.036
36.4627 1.063
36.4792 1.096
36.4958 1.178
36.5123 1.036
36.5289 0.986
36.5454 1.189
36.5619 1.260
36.5785 1.189
36.5950 1.052
36.6116 1.151
36.6281 1.030
36.6447 0.986
36.6612 1.123
36.6778 1.173
36.6943 1.134
36.7109 1.090
36.7274 1.222
36.7439 1.271
36.7605 1.255
36.7770 1.123
36.7936 1.249
36.8101 1.074
36.8267 1.332
36.8432 1.140
36.8598 1.156
36.8763 1.140
36.8929 1.134
36.9094 1.085
36.9259 1.145
36.9425 1.238
36.9590 1.227
36.9756 1.151
36.9921 1.041
37.0087 1.123
37.0252 1.195
37.0418 1.255
37.0583 1.129
37.0749 1.068
37.0914 1.118
37.1079 1.255
37.1245 1.238
37.1410 1.277
37.1576 1.370
37.1741 1.447
37.1907 1.408
37.2072 1.359
37.2238 1.507
37.2403 1.321
37.2569 1.468
37.2734 1.638
37.2899 1.655
37.3065 1.967
37.3230 1.973
37.3396 2.055
37.3561 2.285
37.3727 2.378
37.3892 2.712
37.4058 2.953
37.4223 3.419
37.4389 3.660
37.4554 4.121
37.4719 4.778
37.4885 5.847
37.5050 7.222
37.5216 8.636
37.5381 10.159
37.5547 12.214
37.5712 15.189
37.5878 17.671
37.6043 19.501
37.6209 19.901
37.6374 18.312
37.6539 16.411
37.6705 14.268
37.6870 12.553
37.7036 11.605
37.7201 10.811
37.7367 8.866
37.7532 6.915
37.7698 5.551
37.7863 3.688
37.8029 3.277
37.8194 2.658
37.8359 2.033
37.8525 2.110
37.8690 1.912
37.8856 1.490
37.9021 1.573
37.9187 1.430
37.9352 1.458
37.9518 1.436
37.9683 1.293
37.9848 1.271
38.0014 1.315
38.0179 1.326
38.0345 1.266
38.0510 1.189
38.0676 1.222
38.0841 1.145
38.1007 1.178
38.1172 1.085
38.1338 1.129
38.1503 1.145
38.1668 1.019
38.1834 1.101
38.1999 1.189
38.2165 1.211
38.2330 1.052
38.2496 1.096
38.2661 1.140
38.2827 1.145
38.2992 0.970
38.3158 1.178
38.3323 0.970
38.3488 1.074
38.3654 0.997
38.3819 0.877
38.3985 1.134
38.4150 0.948
38.4316 1.052
38.4481 0.986
38.4647 0.926
38.4812 0.926
38.4978 1.003
38.5143 0.937
38.5308 1.178
38.5474 0.970
38.5639 0.948
38.5805 1.068
38.5970 0.942
38.6136 1.047
38.6301 0.970
38.6467 0.975
38.6632 1.041
38.6798 0.970
38.6963 0.981
38.7128 1.079
38.7294 1.014
38.7459 1.068
38.7625 1.058
38.7790 0.970
38.7956 1.118
38.8121 1.036
38.8287 1.118
38.8452 1.030
38.8618 0.964
38.8783 0.981
38.8948 1.123
38.9114 0.888
38.9279 1.030
38.9445 1.047
38.9610 0.959
38.9776 0.844
38.9941 0.926
39.0107 0.926
39.0272 0.871
39.0438 0.937
39.0603 1.030
39.0768 0.882
39.0934 0.970
39.1099 1.008
39.1265 1.085
39.1430 0.800
39.1596 0.871
39.1761 0.992
39.1927 0.822
39.2092 0.877
39.2258 0.953
39.2423 0.816
39.2588 0.800
39.2754 0.970
39.2919 1.068
39.3085 0.718
39.3250 0.756
39.3416 0.827
39.3581 0.855
39.3747 0.877
39.3912 0.855
39.4078 0.959
39.4243 0.866
39.4408 0.800
39.4574 0.926
39.4739 0.932
39.4905 0.860
39.5070 0.756
39.5236 0.926
39.5401 0.888
39.5567 0.882
39.5732 0.948
39.5898 0.937
39.6063 0.789
39.6228 0.904
39.6394 0.795
39.6559 0.729
39.6725 0.997
39.6890 0.915
39.7056 0.942
39.7221 0.964
39.7387 0.964
39.7552 0.953
39.7718 0.970
39.7883 0.784
39.8048 0.844
39.8214 0.860
39.8379 0.882
39.8545 0.893
39.8710 0.871
39.8876 0.910
39.9041 0.992
39.9207 0.964
39.9372 0.893
39.9538 1.014
39.9703 0.860
39.9868 0.866
40.0034 0.745
40.0199 0.970
40.0365 0.915
40.0530 1.003
40.0696 0.899
40.0861 0.844
40.1027 0.921
40.1192 0.729
40.1358 0.833
40.1523 0.921
40.1688 0.910
40.1854 0.899
40.2019 0.849
40.2185 0.921
40.2350 0.855
40.2516 0.773
40.2681 0.986
40.2847 0.822
40.3012 0.926
40.3178 1.047
40.3343 0.871
40.3508 0.685
40.3674 1.063
40.3839 0.975
40.4005 0.822
40.4170 0.833
40.4336 0.833
40.4501 0.789
40.4667 0.789
40.4832 0.789
40.4998 0.921
40.5163 0.926
40.5328 0.795
40.5494 0.712
40.5659 0.811
40.5825 0.866
40.5990 0.959
40.6156 0.893
40.6321 0.981
40.6487 0.893
40.6652 0.800
40.6818 0.745
40.6983 0.805
40.7148 0.838
40.7314 0.970
40.7479 0.937
40.7645 0.871
40.7810 0.816
40.7976 0.882
40.8141 0.756
40.8307 0.882
40.8472 0.915
40.8637 0.855
40.8803 0.904
40.8968 0.899
40.9134 0.718
40.9299 0.740
40.9465 0.816
40.9630 0.981
40.9796 0.904
40.9961 0.822
41.0127 0.877
41.0292 0.992
41.0457 0.964
41.0623 0.822
41.0788 0.762
41.0954 0.767
41.1119 0.838
41.1285 0.855
41.1450 0.811
41.1616 0.888
41.1781 0.844
41.1947 0.811
41.2112 0.921
41.2277 0.866
41.2443 0.805
41.2608 0.997
41.2774 0.910
41.2939 0.970
41.3105 0.844
41.3270 0.970
41.3436 0.926
41.3601 0.926
41.3767 1.085
41.3932 1.090
41.4097 1.003
41.4263 1.200
41.4428 1.315
41.4594 1.408
41.4759 1.353
41.4925 1.436
41.5090 1.249
41.5256 1.205
41.5421 1.195
41.5587 1.216
41.5752 1.167
41.5917 1.227
41.6083 1.173
41.6248 1.205
41.6414 1.227
41.6579 1.085
41.6745 0.932
41.6910 1.107
41.7076 1.041
41.7241 1.118
41.7407 0.877
41.7572 0.948
41.7737 0.986
41.7903 0.964
41.8068 1.123
41.8234 0.937
41.8399 0.937
41.8565 1.162
41.8730 1.112
41.8896 1.074
41.9061 0.981
41.9227 1.019
41.9392 1.090
41.9557 1.036
41.9723 1.014
41.9888 0.970
42.0054 1.145
42.0219 0.992
42.0385 1.096
42.0550 1.063
42.0716 1.096
42.0881 0.964
42.1047 1.079
42.1212 1.041
42.1377 0.964
42.1543 1.014
42.1708 0.932
42.1874 1.129
42.2039 1.118
42.2205 1.090
42.2370 1.260
42.2536 1.107
42.2701 0.986
42.2867 1.068
42.3032 1.041
42.3197 1.058
42.3363 1.074
42.3528 1.238
42.3694 1.178
42.3859 1.047
42.4025 1.200
42.4190 1.118
42.4356 1.348
42.4521 1.227
42.4687 1.112
42.4852 1.156
42.5017 1.167
42.5183 1.375
42.5348 1.200
42.5514 1.277
42.5679 1.178
42.5845 1.375
42.6010 1.326
42.6176 1.227
42.6341 1.408
42.6507 1.326
42.6672 1.556
42.6837 1.507
42.7003 1.688
42.7168 1.649
42.7334 2.000
42.7499 2.000
42.7665 2.197
42.7830 2.279
42.7996 2.449
42.8161 2.416
42.8327 2.877
42.8492 3.304
42.8657 3.496
42.8823 4.137
42.8988 4.630
42.9154 5.047
42.9319 5.852
42.9485 6.405
42.9650 7.556
42.9816 8.822
42.9981 10.126
43.0147 12.027
43.0312 14.115
43.0477 17.058
43.0643 20.679
43.0808 25.847
43.0974 31.118
43.1139 37.600
43.1305 43.277
43.1470 48.559
43.1636 48.542
43.1801 45.479
43.1967 39.184
43.2132 32.493
43.2297 29.677
43.2463 28.290
43.2628 26.784
43.2794 24.751
43.2959 21.189
43.3125 16.060
43.3290 11.814
43.3456 8.093
43.3621 6.247
43.3787 4.981
43.3952 3.874
43.4117 3.375
43.4283 2.948
43.4448 2.532
43.4614 2.537
43.4779 2.279
43.4945 1.918
43.5110 1.929
43.5276 1.814
43.5441 1.775
43.5606 1.781
43.5772 1.616
43.5937 1.534
43.6103 1.375
43.6268 1.655
43.6434 1.321
43.6599 1.364
43.6765 1.386
43.6930 1.189
43.7096 1.364
43.7261 1.244
43.7426 1.238
43.7592 1.162
43.7757 1.249
43.7923 1.260
43.8088 1.134
43.8254 1.189
43.8419 0.981
43.8585 1.107
43.8750 1.058
43.8916 0.975
43.9081 0.964
43.9246 1.030
43.9412 0.992
43.9577 1.068
43.9743 1.129
43.9908 1.014
44.0074 0.970
44.0239 1.058
44.0405 0.992
44.0570 1.063
44.0736 0.904
44.0901 0.937
44.1066 1.112
44.1232 1.063
44.1397 1.058
44.1563 0.953
44.1728 1.008
44.1894 1.030
44.2059 0.948
44.2225 0.860
44.2390 0.904
44.2556 0.877
44.2721 0.811
44.2886 0.926
44.3052 0.866
44.3217 0.915
44.3383 0.784
44.3548 0.981
44.3714 0.827
44.3879 0.904
44.4045 0.964
44.4210 0.893
44.4376 0.816
44.4541 0.904
44.4706 0.844
44.4872 0.877
44.5037 0.800
44.5203 0.844
44.5368 0.893
44.5534 0.992
44.5699 0.910
44.5865 0.789
44.6030 0.707
44.6196 0.871
44.6361 0.877
44.6526 0.811
44.6692 0.910
44.6857 0.827
44.7023 0.904
44.7188 0.915
44.7354 0.838
44.7519 0.833
44.7685 0.762
44.7850 0.899
44.8016 0.800
44.8181 0.789
44.8346 0.805
44.8512 0.833
44.8677 0.756
44.8843 0.805
44.9008 0.888
44.9174 0.822
44.9339 0.844
44.9505 0.888
44.9670 0.877
44.9836 0.762
45.0001 0.767
45.0166 0.822
45.0332 0.860
45.0497 0.899
45.0663 0.921
45.0828 0.855
45.0994 0.844
45.1159 0.871
45.1325 0.762
45.1490 0.942
45.1656 0.942
45.1821 0.855
45.1986 0.833
45.2152 0.838
45.2317 0.767
45.2483 0.844
45.2648 0.789
45.2814 0.877
45.2979 0.838
45.3145 0.827
45.3310 0.690
45.3476 0.811
45.3641 0.751
45.3806 0.816
45.3972 0.663
45.4137 0.795
45.4303 0.767
45.4468 0.893
45.4634 0.953
45.4799 0.745
45.4965 0.778
45.5130 0.882
45.5296 0.899
45.5461 0.756
45.5626 0.762
45.5792 0.795
45.5957 0.937
45.6123 0.816
45.6288 0.827
45.6454 0.866
45.6619 0.904
45.6785 0.778
45.6950 0.811
45.7116 0.844
45.7281 0.904
45.7446 0.740
45.7612 0.882
45.7777 0.800
45.7943 0.745
45.8108 0.745
45.8274 0.877
45.8439 0.942
45.8605 0.860
45.8770 0.964
45.8936 1.058
45.9101 1.205
45.9266 1.304
45.9432 1.173
45.9597 1.162
45.9763 1.222
45.9928 1.342
46.0094 1.288
46.0259 1.047
46.0425 1.112
46.0590 1.134
46.0756 1.085
46.0921 0.986
46.1086 1.030
46.1252 1.096
46.1417 0.893
46.1583 0.805
46.1748 0.805
46.1914 0.855
46.2079 0.937
46.2245 0.871
46.2410 0.926
46.2575 0.822
46.2741 0.871
46.2906 0.767
46.3072 0.849
46.3237 0.734
46.3403 0.805
46.3568 0.745
46.3734 0.723
46.3899 0.652
46.4065 0.636
46.4230 0.723
46.4395 0.707
46.4561 0.745
46.4726 0.800
46.4892 0.668
46.5057 0.707
46.5223 0.778
46.5388 0.756
46.5554 0.767
46.5719 0.751
46.5885 0.718
46.6050 0.696
46.6215 0.663
46.6381 0.762
46.6546 0.827
46.6712 0.652
46.6877 0.696
46.7043 0.537
46.7208 0.795
46.7374 0.855
46.7539 0.712
46.7705 0.663
46.7870 0.767
46.8035 0.756
46.8201 0.756
46.8366 0.690
46.8532 0.932
46.8697 0.838
46.8863 0.674
46.9028 0.822
46.9194 0.915
46.9359 0.838
46.9525 0.778
46.9690 0.718
46.9855 0.822
47.0021 0.718
47.0186 0.745
47.0352 0.745
47.0517 0.603
47.0683 0.751
47.0848 0.712
47.1014 0.652
47.1179 0.690
47.1345 0.795
47.1510 0.718
47.1675 0.707
47.1841 0.707
47.2006 0.696
47.2172 0.570
47.2337 0.696
47.2503 0.767
47.2668 0.679
47.2834 0.696
47.2999 0.773
47.3165 0.685
47.3330 0.729
47.3495 0.762
47.3661 0.658
47.3826 0.707
47.3992 0.641
47.4157 0.690
47.4323 0.685
47.4488 0.762
47.4654 0.795
47.4819 0.696
47.4985 0.564
47.5150 0.701
47.5315 0.833
47.5481 0.696
47.5646 0.625
47.5812 0.707
47.5977 0.795
47.6143 0.795
47.6308 0.658
47.6474 0.729
47.6639 0.614
47.6805 0.614
47.6970 0.690
47.7135 0.767
47.7301 0.718
47.7466 0.619
47.7632 0.652
47.7797 0.740
47.7963 0.718
47.8128 0.619
47.8294 0.679
47.8459 0.712
47.8625 0.707
47.8790 0.729
47.8955 0.668
47.9121 0.647
47.9286 0.701
47.9452 0.805
47.9617 0.685
47.9783 0.625
47.9948 0.844
48.0114 0.630
48.0279 0.575
48.0445 0.559
48.0610 0.663
48.0775 0.707
48.0941 0.647
48.1106 0.658
48.1272 0.603
48.1437 0.816
48.1603 0.674
48.1768 0.805
48.1934 0.685
48.2099 0.751
48.2265 0.658
48.2430 0.668
48.2595 0.630
48.2761 0.701
48.2926 0.729
48.3092 0.619
48.3257 0.608
48.3423 0.575
48.3588 0.619
48.3754 0.696
48.3919 0.756
48.4085 0.773
48.4250 0.625
48.4415 0.685
48.4581 0.658
48.4746 0.690
48.4912 0.707
48.5077 0.679
48.5243 0.690
48.5408 0.718
48.5574 0.658
48.5739 0.696
48.5905 0.652
48.6070 0.592
48.6235 0.652
48.6401 0.674
48.6566 0.658
48.6732 0.641
48.6897 0.767
48.7063 0.701
48.7228 0.652
48.7394 0.701
48.7559 0.592
48.7725 0.685
48.7890 0.614
48.8055 0.674
48.8221 0.625
48.8386 0.630
48.8552 0.674
48.8717 0.636
48.8883 0.647
48.9048 0.668
48.9214 0.597
48.9379 0.630
48.9545 0.614
48.9710 0.740
48.9875 0.636
49.0041 0.636
49.0206 0.690
49.0372 0.805
49.0537 0.537
49.0703 0.696
49.0868 0.674
49.1034 0.586
49.1199 0.696
49.1364 0.663
49.1530 0.663
49.1695 0.658
49.1861 0.564
49.2026 0.625
49.2192 0.674
49.2357 0.674
49.2523 0.668
49.2688 0.636
49.2854 0.647
49.3019 0.707
49.3184 0.685
49.3350 0.630
49.3515 0.679
49.3681 0.707
49.3846 0.592
49.4012 0.603
49.4177 0.663
49.4343 0.756
49.4508 0.614
49.4674 0.532
49.4839 0.668
49.5004 0.614
49.5170 0.647
49.5335 0.658
49.5501 0.674
49.5666 0.652
49.5832 0.581
49.5997 0.608
49.6163 0.553
49.6328 0.636
49.6494 0.630
49.6659 0.701
49.6824 0.630
49.6990 0.668
49.7155 0.784
49.7321 0.641
49.7486 0.658
49.7652 0.674
49.7817 0.658
49.7983 0.701
49.8148 0.614
49.8314 0.767
49.8479 0.690
49.8644 0.625
49.8810 0.521
49.8975 0.647
49.9141 0.608
49.9306 0.652
49.9472 0.532
49.9637 0.641
49.9803 0.619
49.9968 0.668
50.0134 0.619
50.0299 0.718
50.0464 0.778
50.0630 0.636
50.0795 0.641
50.0961 0.658
50.1126 0.636
50.1292 0.597
50.1457 0.811
50.1623 0.641
50.1788 0.608
50.1954 0.674
50.2119 0.685
50.2284 0.756
50.2450 0.647
50.2615 0.723
50.2781 0.641
50.2946 0.718
50.3112 0.597
50.3277 0.647
50.3443 0.668
50.3608 0.745
50.3774 0.679
50.3939 0.608
50.4104 0.592
50.4270 0.712
50.4435 0.658
50.4601 0.663
50.4766 0.658
50.4932 0.712
50.5097 0.767
50.5263 0.630
50.5428 0.652
50.5594 0.827
50.5759 0.701
50.5924 0.712
50.6090 0.745
50.6255 0.652
50.6421 0.636
50.6586 0.751
50.6752 0.663
50.6917 0.729
50.7083 0.707
50.7248 0.690
50.7414 0.674
50.7579 0.608
50.7744 0.619
50.7910 0.734
50.8075 0.679
50.8241 0.734
50.8406 0.718
50.8572 0.592
50.8737 0.805
50.8903 0.625
50.9068 0.663
50.9234 0.767
50.9399 0.773
50.9564 0.827
50.9730 0.658
50.9895 0.800
51.0061 0.811
51.0226 0.827
51.0392 0.800
51.0557 0.745
51.0723 0.625
51.0888 0.811
51.1054 0.734
51.1219 0.685
51.1384 0.767
51.1550 0.849
51.1715 0.833
51.1881 0.811
51.2046 0.827
51.2212 0.685
51.2377 0.647
51.2543 0.833
51.2708 0.816
51.2874 0.647
51.3039 0.795
51.3204 0.789
51.3370 0.789
51.3535 0.712
51.3701 0.773
51.3866 0.740
51.4032 0.707
51.4197 0.756
51.4363 0.756
51.4528 0.679
51.4694 0.833
51.4859 0.789
51.5024 0.805
51.5190 0.827
51.5355 0.707
51.5521 0.718
51.5686 0.827
51.5852 0.723
51.6017 0.756
51.6183 0.636
51.6348 0.751
51.6514 0.844
51.6679 0.827
51.6844 0.899
51.7010 0.701
51.7175 0.795
51.7341 0.899
51.7506 0.981
51.7672 0.959
51.7837 1.025
51.8003 1.019
51.8168 0.904
51.8333 0.926
51.8499 0.992
51.8664 1.140
51.8830 1.233
51.8995 1.397
51.9161 1.304
51.9326 1.288
51.9492 1.551
51.9657 1.633
51.9823 1.819
51.9988 1.742
52.0153 2.132
52.0319 2.373
52.0484 2.614
52.0650 2.932
52.0815 3.293
52.0981 3.523
52.1146 4.044
52.1312 5.014
52.1477 5.518
52.1643 6.192
52.1808 7.534
52.1973 8.663
52.2139 10.532
52.2304 12.252
52.2470 14.318
52.2635 17.332
52.2801 19.249
52.2966 20.767
52.3132 20.104
52.3297 18.066
52.3463 15.151
52.3628 12.756
52.3793 11.145
52.3959 10.795
52.4124 10.756
52.4290 10.986
52.4455 10.773
52.4621 9.929
52.4786 8.088
52.4952 6.077
52.5117 4.279
52.5283 3.518
52.5448 2.608
52.5613 2.186
52.5779 1.912
52.5944 1.600
52.6110 1.567
52.6275 1.501
52.6441 1.403
52.6606 1.288
52.6772 1.134
52.6937 1.118
52.7103 1.041
52.7268 1.129
52.7433 1.090
52.7599 0.915
52.7764 0.997
52.7930 0.893
52.8095 0.937
52.8261 0.932
52.8426 0.827
52.8592 0.882
52.8757 0.849
52.8923 0.877
52.9088 0.866
52.9253 0.729
52.9419 0.712
52.9584 0.740
52.9750 0.795
52.9915 0.816
53.0081 0.762
53.0246 0.888
53.0412 0.658
53.0577 0.827
53.0743 0.778
53.0908 0.701
53.1073 0.696
53.1239 0.690
53.1404 0.674
53.1570 0.789
53.1735 0.718
53.1901 0.712
53.2066 0.756
53.2232 0.690
53.2397 0.685
53.2563 0.608
53.2728 0.575
53.2893 0.597
53.3059 0.707
53.3224 0.762
53.3390 0.592
53.3555 0.696
53.3721 0.674
53.3886 0.685
53.4052 0.712
53.4217 0.679
53.4383 0.647
53.4548 0.729
53.4713 0.641
53.4879 0.729
53.5044 0.630
53.5210 0.636
53.5375 0.658
53.5541 0.679
53.5706 0.652
53.5872 0.614
53.6037 0.603
53.6203 0.740
53.6368 0.685
53.6533 0.734
53.6699 0.674
53.6864 0.619
53.7030 0.603
53.7195 0.685
53.7361 0.647
53.7526 0.773
53.7692 0.690
53.7857 0.685
53.8023 0.510
53.8188 0.712
53.8353 0.729
53.8519 0.647
53.8684 0.652
53.8850 0.559
53.9015 0.767
53.9181 0.647
53.9346 0.734
53.9512 0.658
53.9677 0.630
53.9843 0.723
54.0008 0.625
54.0173 0.636
54.0339 0.636
54.0504 0.756
54.0670 0.647
54.0835 0.668
54.1001 0.647
54.1166 0.630
54.1332 0.767
54.1497 0.504
54.1663 0.652
54.1828 0.564
54.1993 0.630
54.2159 0.597
54.2324 0.663
54.2490 0.608
54.2655 0.603
54.2821 0.586
54.2986 0.668
54.3152 0.718
54.3317 0.608
54.3483 0.723
54.3648 0.597
54.3813 0.619
54.3979 0.586
54.4144 0.641
54.4310 0.647
54.4475 0.679
54.4641 0.597
54.4806 0.707
54.4972 0.696
54.5137 0.663
54.5302 0.521
54.5468 0.575
54.5633 0.630
54.5799 0.597
54.5964 0.619
54.6130 0.630
54.6295 0.570
54.6461 0.658
54.6626 0.581
54.6792 0.608
54.6957 0.652
54.7122 0.647
54.7288 0.614
54.7453 0.767
54.7619 0.685
54.7784 0.663
54.7950 0.537
54.8115 0.597
54.8281 0.592
54.8446 0.592
54.8612 0.690
54.8777 0.668
54.8942 0.614
54.9108 0.619
54.9273 0.586
54.9439 0.619
54.9604 0.630
54.9770 0.668
54.9935 0.663
55.0101 0.515
55.0266 0.696
55.0432 0.718
55.0597 0.663
55.0762 0.652
55.0928 0.581
55.1093 0.668
55.1259 0.751
55.1424 0.729
55.1590 0.762
55.1755 0.696
55.1921 0.795
55.2086 0.679
55.2252 0.756
55.2417 0.822
55.2582 0.701
55.2748 0.690
55.2913 0.838
55.3079 0.723
55.3244 0.778
55.3410 0.756
55.3575 0.756
55.3741 0.668
55.3906 0.718
55.4072 0.778
55.4237 0.707
55.4402 0.707
55.4568 0.745
55.4733 0.685
55.4899 0.745
55.5064 0.789
55.5230 0.800
55.5395 0.690
55.5561 0.762
55.5726 0.745
55.5892 0.718
55.6057 0.718
55.6222 0.811
55.6388 0.685
55.6553 0.745
55.6719 0.729
55.6884 0.795
55.7050 0.756
55.7215 0.679
55.7381 0.630
55.7546 0.734
55.7712 0.767
55.7877 0.773
55.8042 0.652
55.8208 0.630
55.8373 0.658
55.8539 0.745
55.8704 0.718
55.8870 0.745
55.9035 0.723
55.9201 0.805
55.9366 0.723
55.9532 0.712
55.9697 0.740
55.9862 0.762
56.0028 0.838
56.0193 0.745
56.0359 0.849
56.0524 0.882
56.0690 0.778
56.0855 0.718
56.1021 0.822
56.1186 0.833
56.1352 0.959
56.1517 0.762
56.1682 0.888
56.1848 0.773
56.2013 0.745
56.2179 0.838
56.2344 0.811
56.2510 0.926
56.2675 0.795
56.2841 0.816
56.3006 0.827
56.3172 0.740
56.3337 0.838
56.3502 0.953
56.3668 0.805
56.3833 0.745
56.3999 0.800
56.4164 0.882
56.4330 0.849
56.4495 0.866
56.4661 0.953
56.4826 0.800
56.4992 0.959
56.5157 0.767
56.5322 0.953
56.5488 1.003
56.5653 0.997
56.5819 1.079
56.5984 1.058
56.6150 1.068
56.6315 1.008
56.6481 1.079
56.6646 1.337
56.6812 1.227
56.6977 1.315
56.7142 1.266
56.7308 1.436
56.7473 1.589
56.7639 1.611
56.7804 1.704
56.7970 1.693
56.8135 2.005
56.8301 2.208
56.8466 2.367
56.8632 2.236
56.8797 2.773
56.8962 3.227
56.9128 3.501
56.9293 3.797
56.9459 4.427
56.9624 4.756
56.9790 5.342
56.9955 6.049
57.0121 6.959
57.0286 7.655
57.0452 8.488
57.0617 10.115
57.0782 12.893
57.0948 15.068
57.1113 16.586
57.1279 20.488
57.1444 23.956
57.1610 28.323
57.1775 32.532
57.1941 36.504
57.2106 37.403
57.2272 37.145
57.2437 32.970
57.2602 27.036
57.2768 23.047
57.2933 19.551
57.3099 19.381
57.3264 19.019
57.3430 19.616
57.3595 19.874
57.3761 18.986
57.3926 17.112
57.4091 14.241
57.4257 10.258
57.4422 7.721
57.4588 5.666
57.4753 4.444
57.4919 3.567
57.5084 3.162
57.5250 2.493
57.5415 2.334
57.5581 2.137
57.5746 1.885
57.5911 1.918
57.6077 1.759
57.6242 1.605
57.6408 1.436
57.6573 1.260
57.6739 1.288
57.6904 1.353
57.7070 1.271
57.7235 1.140
57.7401 1.293
57.7566 1.030
57.7731 1.074
57.7897 1.118
57.8062 1.030
57.8228 0.964
57.8393 1.019
57.8559 1.140
57.8724 1.014
57.8890 0.926
57.9055 0.877
57.9221 0.882
57.9386 0.849
57.9551 0.849
57.9717 0.762
57.9882 0.740
58.0048 0.756
58.0213 0.849
58.0379 0.789
58.0544 0.800
58.0710 0.756
58.0875 0.860
58.1041 0.811
58.1206 0.877
58.1371 0.827
58.1537 0.756
58.1702 0.773
58.1868 0.805
58.2033 0.767
58.2199 0.789
58.2364 0.767
58.2530 0.795
58.2695 0.751
58.2861 0.893
58.3026 0.625
58.3191 0.811
58.3357 0.690
58.3522 0.767
58.3688 0.614
58.3853 0.762
58.4019 0.701
58.4184 0.784
58.4350 0.849
58.4515 0.833
58.4681 0.619
58.4846 0.630
58.5011 0.679
58.5177 0.805
58.5342 0.816
58.5508 0.778
58.5673 0.756
58.5839 0.712
58.6004 0.773
58.6170 0.822
58.6335 0.707
58.6501 0.658
58.6666 0.663
58.6831 0.679
58.6997 0.592
58.7162 0.559
58.7328 0.575
58.7493 0.652
58.7659 0.712
58.7824 0.734
58.7990 0.652
58.8155 0.663
58.8321 0.751
58.8486 0.592
58.8651 0.734
58.8817 0.762
58.8982 0.658
58.9148 0.663
58.9313 0.696
58.9479 0.734
58.9644 0.641
58.9810 0.658
58.9975 0.679
59.0141 0.712
59.0306 0.795
59.0471 0.729
59.0637 0.679
59.0802 0.679
59.0968 0.762
59.1133 0.712
59.1299 0.805
59.1464 0.805
59.1630 0.833
59.1795 0.795
59.1961 0.630
59.2126 0.767
59.2291 0.701
59.2457 0.740
59.2622 0.723
59.2788 0.942
59.2953 1.036
59.3119 0.904
59.3284 0.992
59.3450 0.959
59.3615 1.129
59.3781 1.085
59.3946 1.364
59.4111 1.304
59.4277 1.441
59.4442 1.490
59.4608 1.562
59.4773 1.562
59.4939 1.463
59.5104 1.348
59.5270 1.222
59.5435 1.058
59.5601 1.074
59.5766 1.145
59.5931 1.107
59.6097 1.036
59.6262 1.030
59.6428 0.882
59.6593 0.904
59.6759 0.937
59.6924 0.729
59.7090 0.849
59.7255 0.712
59.7421 0.674
59.7586 0.800
59.7751 0.647
59.7917 0.679
59.8082 0.679
59.8248 0.625
59.8413 0.690
59.8579 0.603
59.8744 0.641
59.8910 0.619
59.9075 0.751
59.9241 0.647
59.9406 0.723
59.9571 0.647
59.9737 0.619
59.9902 0.614
60.0068 0.592
60.0233 0.751
60.0399 0.559
60.0564 0.614
60.0730 0.658
60.0895 0.663
60.1060 0.636
60.1226 0.564
60.1391 0.614
60.1557 0.510
60.1722 0.696
60.1888 0.800
60.2053 0.690
60.2219 0.581
60.2384 0.652
60.2550 0.652
60.2715 0.641
60.2880 0.658
60.3046 0.658
60.3211 0.619
60.3377 0.773
60.3542 0.729
60.3708 0.619
60.3873 0.734
60.4039 0.696
60.4204 0.663
60.4370 0.745
60.4535 0.784
60.4700 0.745
60.4866 0.745
60.5031 0.745
60.5197 0.789
60.5362 0.795
60.5528 0.833
60.5693 0.915
60.5859 0.910
60.6024 0.970
60.6190 0.959
60.6355 0.981
60.6520 1.058
60.6686 1.041
60.6851 1.112
60.7017 1.249
60.7182 1.414
60.7348 1.556
60.7513 1.611
60.7679 1.929
60.7844 1.836
60.8010 2.203
60.8175 2.307
60.8340 2.449
60.8506 2.625
60.8671 2.756
60.8837 2.838
60.9002 2.800
60.9168 2.959
60.9333 3.638
60.9499 3.447
60.9664 4.044
60.9830 4.077
60.9995 3.567
61.0160 3.512
61.0326 2.992
61.0491 2.564
61.0657 2.115
61.0822 2.236
61.0988 2.088
61.1153 2.192
61.1319 1.978
61.1484 2.038
61.1650 2.071
61.1815 1.770
61.1980 1.468
61.2146 1.452
61.2311 1.129
61.2477 0.942
61.2642 0.816
61.2808 0.942
61.2973 0.811
61.3139 0.663
61.3304 0.795
61.3470 0.641
61.3635 0.745
61.3800 0.630
61.3966 0.647
61.4131 0.614
61.4297 0.570
61.4462 0.723
61.4628 0.625
61.4793 0.636
61.4959 0.679
61.5124 0.652
61.5290 0.603
61.5455 0.614
61.5620 0.537
61.5786 0.493
61.5951 0.663
61.6117 0.630
61.6282 0.608
61.6448 0.575
61.6613 0.575
61.6779 0.625
61.6944 0.553
61.7110 0.597
61.7275 0.630
61.7440 0.597
61.7606 0.532
61.7771 0.641
61.7937 0.718
61.8102 0.608
61.8268 0.570
61.8433 0.510
61.8599 0.466
61.8764 0.674
61.8930 0.477
61.9095 0.696
61.9260 0.690
61.9426 0.515
61.9591 0.510
61.9757 0.488
61.9922 0.526
62.0088 0.674
62.0253 0.564
62.0419 0.553
62.0584 0.701
62.0750 0.548
62.0915 0.625
62.1080 0.548
62.1246 0.570
62.1411 0.553
62.1577 0.521
62.1742 0.592
62.1908 0.647
62.2073 0.586
62.2239 0.553
62.2404 0.603
62.2570 0.575
62.2735 0.581
62.2900 0.510
62.3066 0.477
62.3231 0.674
62.3397 0.493
62.3562 0.592
62.3728 0.608
62.3893 0.619
62.4059 0.499
62.4224 0.521
62.4390 0.482
62.4555 0.548
62.4720 0.647
62.4886 0.515
62.5051 0.526
62.5217 0.564
62.5382 0.608
62.5548 0.526
62.5713 0.647
62.5879 0.570
62.6044 0.537
62.6210 0.586
62.6375 0.614
62.6540 0.564
62.6706 0.559
62.6871 0.532
62.7037 0.493
62.7202 0.532
62.7368 0.592
62.7533 0.526
62.7699 0.575
62.7864 0.575
62.8029 0.510
62.8195 0.537
62.8360 0.559
62.8526 0.521
62.8691 0.641
62.8857 0.586
62.9022 0.504
62.9188 0.586
62.9353 0.493
62.9519 0.493
62.9684 0.471
62.9849 0.537
63.0015 0.471
63.0180 0.597
63.0346 0.608
63.0511 0.586
63.0677 0.488
63.0842 0.542
63.1008 0.504
63.1173 0.581
63.1339 0.570
63.1504 0.521
63.1669 0.477
63.1835 0.564
63.2000 0.641
63.2166 0.548
63.2331 0.597
63.2497 0.625
63.2662 0.597
63.2828 0.521
63.2993 0.586
63.3159 0.493
63.3324 0.537
63.3489 0.548
63.3655 0.526
63.3820 0.510
63.3986 0.482
63.4151 0.460
63.4317 0.674
63.4482 0.515
63.4648 0.542
63.4813 0.597
63.4979 0.526
63.5144 0.614
63.5309 0.553
63.5475 0.532
63.5640 0.575
63.5806 0.614
63.5971 0.532
63.6137 0.499
63.6302 0.641
63.6468 0.542
63.6633 0.586
63.6799 0.493
63.6964 0.422
63.7129 0.696
63.7295 0.564
63.7460 0.570
63.7626 0.553
63.7791 0.510
63.7957 0.553
63.8122 0.570
63.8288 0.647
63.8453 0.630
63.8619 0.570
63.8784 0.674
63.8949 0.504
63.9115 0.592
63.9280 0.647
63.9446 0.526
63.9611 0.460
63.9777 0.499
63.9942 0.504
64.0108 0.526
64.0273 0.499
64.0439 0.592
64.0604 0.548
64.0769 0.641
64.0935 0.603
64.1100 0.526
64.1266 0.504
64.1431 0.647
64.1597 0.625
64.1762 0.614
64.1928 0.630
64.2093 0.652
64.2259 0.548
64.2424 0.581
64.2589 0.570
64.2755 0.608
64.2920 0.575
64.3086 0.603
64.3251 0.608
64.3417 0.537
64.3582 0.592
64.3748 0.532
64.3913 0.570
64.4079 0.504
64.4244 0.499
64.4409 0.564
64.4575 0.652
64.4740 0.619
64.4906 0.625
64.5071 0.668
64.5237 0.493
64.5402 0.510
64.5568 0.570
64.5733 0.690
64.5899 0.449
64.6064 0.614
64.6229 0.488
64.6395 0.548
64.6560 0.658
64.6726 0.586
64.6891 0.526
64.7057 0.488
64.7222 0.542
64.7388 0.592
64.7553 0.614
64.7719 0.619
64.7884 0.559
64.8049 0.636
64.8215 0.658
64.8380 0.581
64.8546 0.559
64.8711 0.537
64.8877 0.515
64.9042 0.559
64.9208 0.521
64.9373 0.619
64.9539 0.641
64.9704 0.526
64.9869 0.619
65.0035 0.701
65.0200 0.586
65.0366 0.712
65.0531 0.586
65.0697 0.652
65.0862 0.668
65.1028 0.586
65.1193 0.619
65.1359 0.630
65.1524 0.592
65.1689 0.696
65.1855 0.701
65.2020 0.756
65.2186 0.668
65.2351 0.597
65.2517 0.619
65.2682 0.636
65.2848 0.712
65.3013 0.641
65.3179 0.663
65.3344 0.674
65.3509 0.592
65.3675 0.729
65.3840 0.756
65.4006 0.652
65.4171 0.745
65.4337 0.619
65.4502 0.641
65.4668 0.652
65.4833 0.718
65.4999 0.729
65.5164 0.745
65.5329 0.718
65.5495 0.756
65.5660 0.789
65.5826 0.877
65.5991 0.811
65.6157 0.756
65.6322 0.751
65.6488 0.844
65.6653 0.910
65.6818 0.910
65.6984 1.030
65.7149 0.882
65.7315 1.162
65.7480 1.052
65.7646 1.030
65.7811 1.277
65.7977 1.222
65.8142 1.227
65.8308 1.293
65.8473 1.551
65.8638 1.622
65.8804 1.819
65.8969 1.715
65.9135 1.962
65.9300 2.121
65.9466 2.307
65.9631 2.641
65.9797 2.789
65.9962 3.353
66.0128 4.137
66.0293 4.236
66.0458 4.784
66.0624 5.660
66.0789 6.855
66.0955 7.540
66.1120 8.827
66.1286 9.967
66.1451 11.967
66.1617 12.488
66.1782 13.375
66.1948 13.605
66.2113 12.367
66.2278 10.751
66.2444 9.074
66.2609 7.556
66.2775 6.592
66.2940 6.416
66.3106 6.471
66.3271 6.789
66.3437 6.882
66.3602 6.855
66.3768 6.959
66.3933 6.362
66.4098 5.551
66.4264 4.416
66.4429 3.299
66.4595 2.652
66.4760 2.214
66.4926 1.836
66.5091 1.649
66.5257 1.463
66.5422 1.353
66.5588 1.255
66.5753 1.260
66.5918 1.162
66.6084 0.926
66.6249 1.090
66.6415 0.997
66.6580 0.866
66.6746 0.866
66.6911 0.751
66.7077 0.805
66.7242 0.827
66.7408 0.910
66.7573 0.860
66.7738 0.849
66.7904 0.844
66.8069 0.734
66.8235 0.893
66.8400 0.981
66.8566 0.800
66.8731 0.778
66.8897 0.773
66.9062 0.674
66.9228 0.778
66.9393 0.745
66.9558 0.893
66.9724 0.888
66.9889 0.822
67.0055 0.729
67.0220 0.866
67.0386 0.937
67.0551 0.668
67.0717 0.805
67.0882 0.844
67.1048 0.822
67.1213 0.915
67.1378 0.888
67.1544 0.866
67.1709 0.910
67.1875 0.827
67.2040 0.888
67.2206 0.970
67.2371 0.904
67.2537 0.871
67.2702 0.893
67.2868 0.953
67.3033 1.019
67.3198 0.975
67.3364 1.101
67.3529 0.959
67.3695 1.140
67.3860 1.112
67.4026 1.162
67.4191 1.249
67.4357 1.348
67.4522 1.375
67.4688 1.425
67.4853 1.529
67.5018 1.732
67.5184 1.726
67.5349 1.858
67.5515 2.258
67.5680 2.279
67.5846 2.389
67.6011 2.586
67.6177 2.942
67.6342 3.375
67.6508 3.589
67.6673 4.104
67.6838 4.679
67.7004 5.277
67.7169 6.329
67.7335 7.556
67.7500 8.274
67.7666 9.737
67.7831 11.123
67.7997 13.595
67.8162 15.616
67.8328 16.630
67.8493 19.216
67.8658 19.929
67.8824 19.551
67.8989 18.279
67.9155 15.742
67.9320 12.734
67.9486 10.471
67.9651 8.975
67.9817 9.249
67.9982 9.156
68.0148 9.189
68.0313 10.027
68.0478 10.658
68.0644 10.515
68.0809 9.408
68.0975 8.416
68.1140 6.499
68.1306 5.299
68.1471 3.929
68.1637 2.953
68.1802 2.449
68.1968 2.236
68.2133 1.879
68.2298 1.600
68.2464 1.441
68.2629 1.359
68.2795 1.288
68.2960 1.233
68.3126 0.915
68.3291 1.052
68.3457 1.019
68.3622 1.047
68.3787 0.888
68.3953 0.871
68.4118 0.773
68.4284 0.827
68.4449 0.789
68.4615 0.805
68.4780 0.773
68.4946 0.784
68.5111 0.762
68.5277 0.789
68.5442 0.663
68.5607 0.844
68.5773 0.805
68.5938 0.745
68.6104 0.773
68.6269 0.630
68.6435 0.789
68.6600 0.663
68.6766 0.745
68.6931 0.685
68.7097 0.679
68.7262 0.679
68.7427 0.734
68.7593 0.581
68.7758 0.707
68.7924 0.614
68.8089 0.493
68.8255 0.641
68.8420 0.630
68.8586 0.603
68.8751 0.581
68.8917 0.685
68.9082 0.712
68.9247 0.668
68.9413 0.548
68.9578 0.652
68.9744 0.674
68.9909 0.570
69.0075 0.647
69.0240 0.740
69.0406 0.559
69.0571 0.526
69.0737 0.630
69.0902 0.586
69.1067 0.548
69.1233 0.630
69.1398 0.471
69.1564 0.619
69.1729 0.575
69.1895 0.537
69.2060 0.515
69.2226 0.603
69.2391 0.499
69.2557 0.542
69.2722 0.586
69.2887 0.636
69.3053 0.597
69.3218 0.537
69.3384 0.608
69.3549 0.482
69.3715 0.559
69.3880 0.504
69.4046 0.499
69.4211 0.570
69.4377 0.581
69.4542 0.542
69.4707 0.515
69.4873 0.493
69.5038 0.625
69.5204 0.619
69.5369 0.668
69.5535 0.652
69.5700 0.553
69.5866 0.647
69.6031 0.526
69.6197 0.488
69.6362 0.592
69.6527 0.515
69.6693 0.608
69.6858 0.597
69.7024 0.564
69.7189 0.614
69.7355 0.570
69.7520 0.553
69.7686 0.542
69.7851 0.537
69.8017 0.592
69.8182 0.614
69.8347 0.553
69.8513 0.603
69.8678 0.542
69.8844 0.636
69.9009 0.625
69.9175 0.619
69.9340 0.636
69.9506 0.652
69.9671 0.707
69.9837 0.767
70.0002 0.816
