'Id: "" Comment: "" Operator: "Administrator" Anode: "Cu" Scantype: "Locked Coupled" TimePerStep: "182.5" X: "0" Y: "0" Z: "0" 
20.0000 2.838
20.0165 2.553
20.0331 2.822
20.0496 2.663
20.0662 2.888
20.0827 2.603
20.0993 2.608
20.1158 2.619
20.1324 2.762
20.1489 2.663
20.1655 2.712
20.1820 2.800
20.1985 2.734
20.2151 2.548
20.2316 2.570
20.2482 2.515
20.2647 2.586
20.2813 2.712
20.2978 2.603
20.3144 2.532
20.3309 2.690
20.3475 2.471
20.3640 2.515
20.3805 2.603
20.3971 2.493
20.4136 2.899
20.4302 2.559
20.4467 2.707
20.4633 2.493
20.4798 2.427
20.4964 2.411
20.5129 2.789
20.5295 2.515
20.5460 2.449
20.5625 2.548
20.5791 2.504
20.5956 2.477
20.6122 2.564
20.6287 2.685
20.6453 2.504
20.6618 2.521
20.6784 2.581
20.6949 2.488
20.7115 2.477
20.7280 2.351
20.7445 2.510
20.7611 2.515
20.7776 2.542
20.7942 2.499
20.8107 2.515
20.8273 2.559
20.8438 2.433
20.8604 2.510
20.8769 2.641
20.8935 2.460
20.9100 2.658
20.9265 2.477
20.9431 2.477
20.9596 2.373
20.9762 2.630
20.9927 2.351
21.0093 2.630
21.0258 2.345
21.0424 2.510
21.0589 2.707
21.0755 2.181
21.0920 2.329
21.1085 2.608
21.1251 2.416
21.1416 2.564
21.1582 2.515
21.1747 2.521
21.1913 2.553
21.2078 2.658
21.2244 2.268
21.2409 2.411
21.2575 2.449
21.2740 2.614
21.2905 2.581
21.3071 2.592
21.3236 2.301
21.3402 2.460
21.3567 2.586
21.3733 2.444
21.3898 2.411
21.4064 2.340
21.4229 2.307
21.4394 2.658
21.4560 2.444
21.4725 2.367
21.4891 2.493
21.5056 2.526
21.5222 2.312
21.5387 2.433
21.5553 2.504
21.5718 2.279
21.5884 2.614
21.6049 2.367
21.6214 2.356
21.6380 2.570
21.6545 2.729
21.6711 2.252
21.6876 2.811
21.7042 2.619
21.7207 2.077
21.7373 2.395
21.7538 2.504
21.7704 2.340
21.7869 2.427
21.8034 2.345
21.8200 2.526
21.8365 2.356
21.8531 2.532
21.8696 2.471
21.8862 2.466
21.9027 2.537
21.9193 2.674
21.9358 2.482
21.9524 2.279
21.9689 2.340
21.9854 2.460
22.0020 2.203
22.0185 2.493
22.0351 2.290
22.0516 2.378
22.0682 2.521
22.0847 2.422
22.1013 2.405
22.1178 2.252
22.1344 2.274
22.1509 2.488
22.1674 2.537
22.1840 2.345
22.2005 2.356
22.2171 2.340
22.2336 2.318
22.2502 2.323
22.2667 2.203
22.2833 2.416
22.2998 2.356
22.3164 2.290
22.3329 2.323
22.3494 2.329
22.3660 2.126
22.3825 2.296
22.3991 2.186
22.4156 2.203
22.4322 2.192
22.4487 2.126
22.4653 2.241
22.4818 2.148
22.4984 2.329
22.5149 2.405
22.5314 2.279
22.5480 2.510
22.5645 2.192
22.5811 2.082
22.5976 2.285
22.6142 2.121
22.6307 2.329
22.6473 2.422
22.6638 2.351
22.6804 2.312
22.6969 2.351
22.7134 2.351
22.7300 2.153
22.7465 2.236
22.7631 2.049
22.7796 2.230
22.7962 2.252
22.8127 2.230
22.8293 2.318
22.8458 2.011
22.8624 2.279
22.8789 2.121
22.8954 2.268
22.9120 2.258
22.9285 2.258
22.9451 2.230
22.9616 2.433
22.9782 2.263
22.9947 2.241
23.0113 2.241
23.0278 2.263
23.0444 2.164
23.0609 2.279
23.0774 2.214
23.0940 2.230
23.1105 2.164
23.1271 2.142
23.1436 2.247
23.1602 2.290
23.1767 2.329
23.1933 2.186
23.2098 2.016
23.2264 2.082
23.2429 1.978
23.2594 1.923
23.2760 2.082
23.2925 2.000
23.3091 2.088
23.3256 2.214
23.3422 2.203
23.3587 2.142
23.3753 2.000
23.3918 1.923
23.4084 2.279
23.4249 2.049
23.4414 2.323
23.4580 2.005
23.4745 2.159
23.4911 2.290
23.5076 2.044
23.5242 2.049
23.5407 2.214
23.5573 2.077
23.5738 2.126
23.5904 2.181
23.6069 2.055
23.6234 2.274
23.6400 2.082
23.6565 2.148
23.6731 2.038
23.6896 2.071
23.7062 2.132
23.7227 2.263
23.7393 2.186
23.7558 2.247
23.7724 2.263
23.7889 2.219
23.8054 2.285
23.8220 2.263
23.8385 2.099
23.8551 2.247
23.8716 2.247
23.8882 2.444
23.9047 2.175
23.9213 2.455
23.9378 2.477
23.9544 2.247
23.9709 2.460
23.9874 2.345
24.0040 2.159
24.0205 2.619
24.0371 2.405
24.0536 2.345
24.0702 2.493
24.0867 2.532
24.1033 2.668
24.1198 2.674
24.1364 2.537
24.1529 2.389
24.1694 2.641
24.1860 2.493
24.2025 2.586
24.2191 2.701
24.2356 2.647
24.2522 2.548
24.2687 2.712
24.2853 2.751
24.3018 2.532
24.3183 2.647
24.3349 2.773
24.3514 2.679
24.3680 2.756
24.3845 2.608
24.4011 2.658
24.4176 2.860
24.4342 2.395
24.4507 2.471
24.4673 2.658
24.4838 2.449
24.5003 2.603
24.5169 2.581
24.5334 2.668
24.5500 2.707
24.5665 2.641
24.5831 2.647
24.5996 2.466
24.6162 2.679
24.6327 2.789
24.6493 2.795
24.6658 2.970
24.6823 2.668
24.6989 2.592
24.7154 2.915
24.7320 2.860
24.7485 2.904
24.7651 2.937
24.7816 2.751
24.7982 2.597
24.8147 2.663
24.8313 2.636
24.8478 2.926
24.8643 2.597
24.8809 2.855
24.8974 3.074
24.9140 2.921
24.9305 2.811
24.9471 2.740
24.9636 2.729
24.9802 2.959
24.9967 2.932
25.0133 2.647
25.0298 2.734
25.0463 3.058
25.0629 2.849
25.0794 3.052
25.0960 2.926
25.1125 2.942
25.1291 2.811
25.1456 2.921
25.1622 2.893
25.1787 3.326
25.1953 2.877
25.2118 3.205
25.2283 3.227
25.2449 3.595
25.2614 3.627
25.2780 3.688
25.2945 3.786
25.3111 4.153
25.3276 4.444
25.3442 4.597
25.3607 5.375
25.3773 5.885
25.3938 6.712
25.4103 7.611
25.4269 8.751
25.4434 10.937
25.4600 12.663
25.4765 15.967
25.4931 20.668
25.5096 25.918
25.5262 30.729
25.5427 35.047
25.5593 38.000
25.5758 36.082
25.5923 32.619
25.6089 28.455
25.6254 23.819
25.6420 19.151
25.6585 14.378
25.6751 11.123
25.6916 8.499
25.7082 6.301
25.7247 5.534
25.7413 4.542
25.7578 4.153
25.7743 3.655
25.7909 3.584
25.8074 3.222
25.8240 3.277
25.8405 2.921
25.8571 2.866
25.8736 2.921
25.8902 2.773
25.9067 2.652
25.9233 2.559
25.9398 2.707
25.9563 2.855
25.9729 2.745
25.9894 2.422
26.0060 2.367
26.0225 2.378
26.0391 2.614
26.0556 2.444
26.0722 2.488
26.0887 2.460
26.1053 2.444
26.1218 2.455
26.1383 2.285
26.1549 2.488
26.1714 2.411
26.1880 2.373
26.2045 2.389
26.2211 2.411
26.2376 2.323
26.2542 2.384
26.2707 2.197
26.2873 2.449
26.3038 2.384
26.3203 2.197
26.3369 2.164
26.3534 2.274
26.3700 2.044
26.3865 2.323
26.4031 2.225
26.4196 2.071
26.4362 2.307
26.4527 2.203
26.4693 2.318
26.4858 2.121
26.5023 2.230
26.5189 2.449
26.5354 2.285
26.5520 2.071
26.5685 2.104
26.5851 2.181
26.6016 2.137
26.6182 2.214
26.6347 2.110
26.6513 2.362
26.6678 2.110
26.6843 2.181
26.7009 2.274
26.7174 2.044
26.7340 2.049
26.7505 1.940
26.7671 2.285
26.7836 1.962
26.8002 1.967
26.8167 2.110
26.8333 2.356
26.8498 1.896
26.8663 2.208
26.8829 2.186
26.8994 1.929
26.9160 2.082
26.9325 2.214
26.9491 2.000
26.9656 2.153
26.9822 2.027
26.9987 2.208
27.0152 2.071
27.0318 2.115
27.0483 2.192
27.0649 2.033
27.0814 1.858
27.0980 1.923
27.1145 2.153
27.1311 2.093
27.1476 1.962
27.1642 2.132
27.1807 2.186
27.1972 2.077
27.2138 2.049
27.2303 1.912
27.2469 1.814
27.2634 1.836
27.2800 2.055
27.2965 2.027
27.3131 1.956
27.3296 2.192
27.3462 1.962
27.3627 1.808
27.3792 1.792
27.3958 1.852
27.4123 1.962
27.4289 2.033
27.4454 1.995
27.4620 1.978
27.4785 1.962
27.4951 1.912
27.5116 2.055
27.5282 2.055
27.5447 2.060
27.5612 1.973
27.5778 1.907
27.5943 1.885
27.6109 1.956
27.6274 2.153
27.6440 1.951
27.6605 1.786
27.6771 2.060
27.6936 2.011
27.7102 1.770
27.7267 2.181
27.7432 1.923
27.7598 1.770
27.7763 1.819
27.7929 1.940
27.8094 1.945
27.8260 1.797
27.8425 1.825
27.8591 1.847
27.8756 1.885
27.8922 1.830
27.9087 1.797
27.9252 1.836
27.9418 1.753
27.9583 1.896
27.9749 2.038
27.9914 1.704
28.0080 1.737
28.0245 1.737
28.0411 1.797
28.0576 1.907
28.0742 1.918
28.0907 1.671
28.1072 1.633
28.1238 1.879
28.1403 1.825
28.1569 1.814
28.1734 1.436
28.1900 1.753
28.2065 1.704
28.2231 1.863
28.2396 1.858
28.2562 1.775
28.2727 1.742
28.2892 1.825
28.3058 1.803
28.3223 1.605
28.3389 1.742
28.3554 1.836
28.3720 1.786
28.3885 1.605
28.4051 1.737
28.4216 1.868
28.4382 1.633
28.4547 1.710
28.4712 1.797
28.4878 1.682
28.5043 1.490
28.5209 1.622
28.5374 1.792
28.5540 1.710
28.5705 1.770
28.5871 1.666
28.6036 1.660
28.6202 1.688
28.6367 1.556
28.6532 1.721
28.6698 1.660
28.6863 1.507
28.7029 1.523
28.7194 1.655
28.7360 1.759
28.7525 1.655
28.7691 1.715
28.7856 1.737
28.8022 1.529
28.8187 1.627
28.8352 1.562
28.8518 1.627
28.8683 1.677
28.8849 1.611
28.9014 1.468
28.9180 1.589
28.9345 1.732
28.9511 1.622
28.9676 1.704
28.9842 1.655
29.0007 1.638
29.0172 1.441
29.0338 1.638
29.0503 1.721
29.0669 1.523
29.0834 1.507
29.1000 1.485
29.1165 1.501
29.1331 1.534
29.1496 1.562
29.1662 1.605
29.1827 1.507
29.1992 1.463
29.2158 1.479
29.2323 1.430
29.2489 1.605
29.2654 1.551
29.2820 1.523
29.2985 1.611
29.3151 1.540
29.3316 1.611
29.3482 1.507
29.3647 1.573
29.3812 1.490
29.3978 1.364
29.4143 1.512
29.4309 1.556
29.4474 1.622
29.4640 1.458
29.4805 1.655
29.4971 1.507
29.5136 1.573
29.5302 1.436
29.5467 1.425
29.5632 1.666
29.5798 1.452
29.5963 1.551
29.6129 1.419
29.6294 1.381
29.6460 1.474
29.6625 1.441
29.6791 1.534
29.6956 1.468
29.7121 1.375
29.7287 1.458
29.7452 1.425
29.7618 1.408
29.7783 1.540
29.7949 1.458
29.8114 1.408
29.8280 1.430
29.8445 1.562
29.8611 1.419
29.8776 1.468
29.8941 1.326
29.9107 1.545
29.9272 1.381
29.9438 1.386
29.9603 1.458
29.9769 1.441
29.9934 1.353
30.0100 1.627
30.0265 1.463
30.0431 1.375
30.0596 1.326
30.0761 1.458
30.0927 1.567
30.1092 1.353
30.1258 1.342
30.1423 1.370
30.1589 1.260
30.1754 1.430
30.1920 1.452
30.2085 1.463
30.2251 1.436
30.2416 1.342
30.2581 1.326
30.2747 1.386
30.2912 1.337
30.3078 1.501
30.3243 1.195
30.3409 1.370
30.3574 1.244
30.3740 1.364
30.3905 1.485
30.4071 1.310
30.4236 1.255
30.4401 1.260
30.4567 1.326
30.4732 1.282
30.4898 1.397
30.5063 1.266
30.5229 1.501
30.5394 1.249
30.5560 1.474
30.5725 1.282
30.5891 1.238
30.6056 1.140
30.6221 1.282
30.6387 1.332
30.6552 1.227
30.6718 1.282
30.6883 1.545
30.7049 1.189
30.7214 1.342
30.7380 1.375
30.7545 1.304
30.7711 1.392
30.7876 1.408
30.8041 1.244
30.8207 1.392
30.8372 1.353
30.8538 1.271
30.8703 1.271
30.8869 1.326
30.9034 1.458
30.9200 1.195
30.9365 1.304
30.9531 1.216
30.9696 1.189
30.9861 1.271
31.0027 1.244
31.0192 1.326
31.0358 1.321
31.0523 1.282
31.0689 1.332
31.0854 1.479
31.1020 1.216
31.1185 1.216
31.1351 1.370
31.1516 1.310
31.1681 1.238
31.1847 1.419
31.2012 1.200
31.2178 1.151
31.2343 1.266
31.2509 1.255
31.2674 1.310
31.2840 1.151
31.3005 1.260
31.3171 1.189
31.3336 1.184
31.3501 1.244
31.3667 1.216
31.3832 1.156
31.3998 1.304
31.4163 1.299
31.4329 1.101
31.4494 1.211
31.4660 1.167
31.4825 1.326
31.4991 1.233
31.5156 1.364
31.5321 1.079
31.5487 1.271
31.5652 1.134
31.5818 1.337
31.5983 1.353
31.6149 1.266
31.6314 1.277
31.6480 1.299
31.6645 1.304
31.6811 1.282
31.6976 1.244
31.7141 1.211
31.7307 1.326
31.7472 1.332
31.7638 1.052
31.7803 1.167
31.7969 1.332
31.8134 1.348
31.8300 1.189
31.8465 1.118
31.8631 1.266
31.8796 1.063
31.8961 1.041
31.9127 1.118
31.9292 1.140
31.9458 1.189
31.9623 1.189
31.9789 1.200
31.9954 1.244
32.0120 1.200
32.0285 1.173
32.0451 1.255
32.0616 1.079
32.0781 1.211
32.0947 1.293
32.1112 1.123
32.1278 1.118
32.1443 1.293
32.1609 1.233
32.1774 1.205
32.1940 1.019
32.2105 1.200
32.2271 1.112
32.2436 1.211
32.2601 1.008
32.2767 1.140
32.2932 1.178
32.3098 1.118
32.3263 1.205
32.3429 1.222
32.3594 0.992
32.3760 1.233
32.3925 1.074
32.4091 1.063
32.4256 1.112
32.4421 1.255
32.4587 1.184
32.4752 1.205
32.4918 1.227
32.5083 1.266
32.5249 1.112
32.5414 1.244
32.5580 1.238
32.5745 0.981
32.5910 1.200
32.6076 1.134
32.6241 1.156
32.6407 1.019
32.6572 1.112
32.6738 1.129
32.6903 1.123
32.7069 1.134
32.7234 1.118
32.7400 1.036
32.7565 1.145
32.7730 1.074
32.7896 1.063
32.8061 1.074
32.8227 1.074
32.8392 1.244
32.8558 1.085
32.8723 1.085
32.8889 1.129
32.9054 1.123
32.9220 0.975
32.9385 1.101
32.9550 0.992
32.9716 0.992
32.9881 1.090
33.0047 1.096
33.0212 0.964
33.0378 1.025
33.0543 1.019
33.0709 1.019
33.0874 1.025
33.1040 1.112
33.1205 1.052
33.1370 1.167
33.1536 0.942
33.1701 1.052
33.1867 1.101
33.2032 1.200
33.2198 1.151
33.2363 1.074
33.2529 1.151
33.2694 1.200
33.2860 1.052
33.3025 1.025
33.3190 1.003
33.3356 0.970
33.3521 1.008
33.3687 1.030
33.3852 1.052
33.4018 1.189
33.4183 1.074
33.4349 1.151
33.4514 1.096
33.4680 1.063
33.4845 1.299
33.5010 0.970
33.5176 1.107
33.5341 1.090
33.5507 1.123
33.5672 1.068
33.5838 1.014
33.6003 1.036
33.6169 0.970
33.6334 1.156
33.6500 1.200
33.6665 1.047
33.6830 1.036
33.6996 1.211
33.7161 1.079
33.7327 1.118
33.7492 1.052
33.7658 1.101
33.7823 1.107
33.7989 1.315
33.8154 1.090
33.8320 1.145
33.8485 1.178
33.8650 1.195
33.8816 1.216
33.8981 1.238
33.9147 1.359
33.9312 1.238
33.9478 1.233
33.9643 1.195
33.9809 1.321
33.9974 1.189
34.0140 1.260
34.0305 1.288
34.0470 1.178
34.0636 1.326
34.0801 1.310
34.0967 1.381
34.1132 1.353
34.1298 1.288
34.1463 1.244
34.1629 1.178
34.1794 1.211
34.1960 1.342
34.2125 1.359
34.2290 1.392
34.2456 1.266
34.2621 1.326
34.2787 1.266
34.2952 1.419
34.3118 1.463
34.3283 1.332
34.3449 1.216
34.3614 1.381
34.3780 1.397
34.3945 1.397
34.4110 1.189
34.4276 1.452
34.4441 1.277
34.4607 1.299
34.4772 1.441
34.4938 1.321
34.5103 1.479
34.5269 1.425
34.5434 1.375
34.5600 1.595
34.5765 1.408
34.5930 1.474
34.6096 1.567
34.6261 1.726
34.6427 1.589
34.6592 1.671
34.6758 2.022
34.6923 1.923
34.7089 2.175
34.7254 2.197
34.7420 2.016
34.7585 2.301
34.7750 2.493
34.7916 2.685
34.8081 2.964
34.8247 3.277
34.8412 3.436
34.8578 3.918
34.8743 4.252
34.8909 4.827
34.9074 5.419
34.9240 6.334
34.9405 7.337
34.9570 8.395
34.9736 10.329
34.9901 11.858
35.0067 14.674
35.0232 18.148
35.0398 22.422
35.0563 27.342
35.0729 34.049
35.0894 41.266
35.1060 47.205
35.1225 49.112
35.1390 46.033
35.1556 40.707
35.1721 35.507
35.1887 31.693
35.2052 28.537
35.2218 25.222
35.2383 20.674
35.2549 15.293
35.2714 10.997
35.2879 7.945
35.3045 5.677
35.3210 4.510
35.3376 4.000
35.3541 3.370
35.3707 3.112
35.3872 2.603
35.4038 2.175
35.4203 2.367
35.4369 2.044
35.4534 1.940
35.4699 1.655
35.4865 1.825
35.5030 1.852
35.5196 1.518
35.5361 1.655
35.5527 1.562
35.5692 1.540
35.5858 1.649
35.6023 1.589
35.6189 1.496
35.6354 1.326
35.6519 1.386
35.6685 1.419
35.6850 1.375
35.7016 1.381
35.7181 1.408
35.7347 1.222
35.7512 1.288
35.7678 1.321
35.7843 1.211
35.8009 1.452
35.8174 1.118
35.8339 1.266
35.8505 1.304
35.8670 1.304
35.8836 1.101
35.9001 1.184
35.9167 1.123
35.9332 1.200
35.9498 1.332
35.9663 1.107
35.9829 1.249
35.9994 1.260
36.0159 1.156
36.0325 1.200
36.0490 1.047
36.0656 1.227
36.0821 1.090
36.0987 1.036
36.1152 1.266
36.1318 1.205
36.1483 1.068
36.1649 1.173
36.1814 1.118
36.1979 1.189
36.2145 1.178
36.2310 1.101
36.2476 1.101
36.2641 1.058
36.2807 1.266
36.2972 1.282
36.3138 1.129
36.3303 1.101
36.3469 1.063
36.3634 1.184
36.3799 1.173
36.3965 1.233
36.4130 1.041
36.4296 1.079
36.4461 1.233
36.4627 1.151
36.4792 1.101
36.4958 1.156
36.5123 1.162
36.5289 1.058
36.5454 1.244
36.5619 1.047
36.5785 1.173
36.5950 1.184
36.6116 1.205
36.6281 1.156
36.6447 1.074
36.6612 1.107
36.6778 0.921
36.6943 1.036
36.7109 1.288
36.7274 1.129
36.7439 1.123
36.7605 1.227
36.7770 1.178
36.7936 1.129
36.8101 1.145
36.8267 0.975
36.8432 1.189
36.8598 1.129
36.8763 1.178
36.8929 1.101
36.9094 1.288
36.9259 1.041
36.9425 1.123
36.9590 1.008
36.9756 1.129
36.9921 1.014
37.0087 1.205
37.0252 1.145
37.0418 1.162
37.0583 1.162
37.0749 1.200
37.0914 1.195
37.1079 1.195
37.1245 1.090
37.1410 1.304
37.1576 1.178
37.1741 1.030
37.1907 1.233
37.2072 1.200
37.2238 1.145
37.2403 1.337
37.2569 1.189
37.2734 1.238
37.2899 1.255
37.3065 1.233
37.3230 1.408
37.3396 1.342
37.3561 1.397
37.3727 1.490
37.3892 1.660
37.4058 1.677
37.4223 1.649
37.4389 1.923
37.4554 2.362
37.4719 2.027
37.4885 2.038
37.5050 2.466
37.5216 2.630
37.5381 2.975
37.5547 3.266
37.5712 3.644
37.5878 4.186
37.6043 5.244
37.6209 6.312
37.6374 6.877
37.6539 8.274
37.6705 10.055
37.6870 11.830
37.7036 15.167
37.7201 17.688
37.7367 19.600
37.7532 19.704
37.7698 18.362
37.7863 15.441
37.8029 13.863
37.8194 12.471
37.8359 11.770
37.8525 10.422
37.8690 8.696
37.8856 7.030
37.9021 5.101
37.9187 3.803
37.9352 3.134
37.9518 2.548
37.9683 2.055
37.9848 1.945
38.0014 1.742
38.0179 1.677
38.0345 1.490
38.0510 1.485
38.0676 1.403
38.0841 1.293
38.1007 1.293
38.1172 1.332
38.1338 1.090
38.1503 1.096
38.1668 1.151
38.1834 1.063
38.1999 1.255
38.2165 1.101
38.2330 1.134
38.2496 1.025
38.2661 1.030
38.2827 1.134
38.2992 1.107
38.3158 1.145
38.3323 0.992
38.3488 1.030
38.3654 1.211
38.3819 1.090
38.3985 1.162
38.4150 1.134
38.4316 1.107
38.4481 0.948
38.4647 1.063
38.4812 0.959
38.4978 1.058
38.5143 0.932
38.5308 0.921
38.5474 0.975
38.5639 0.899
38.5805 1.074
38.5970 1.085
38.6136 0.926
38.6301 0.904
38.6467 0.970
38.6632 0.932
38.6798 1.041
38.6963 1.112
38.7128 0.888
38.7294 1.085
38.7459 0.981
38.7625 0.921
38.7790 0.871
38.7956 0.888
38.8121 0.888
38.8287 0.860
38.8452 1.074
38.8618 0.975
38.8783 0.899
38.8948 1.025
38.9114 0.975
38.9279 1.036
38.9445 1.085
38.9610 0.877
38.9776 1.260
38.9941 1.008
39.0107 0.986
39.0272 1.112
39.0438 0.964
39.0603 0.948
39.0768 0.734
39.0934 1.003
39.1099 0.926
39.1265 0.855
39.1430 0.767
39.1596 0.866
39.1761 0.866
39.1927 0.844
39.2092 0.899
39.2258 0.855
39.2423 0.937
39.2588 0.970
39.2754 0.795
39.2919 0.844
39.3085 0.871
39.3250 0.959
39.3416 0.833
39.3581 0.904
39.3747 0.800
39.3912 0.942
39.4078 0.789
39.4243 0.816
39.4408 0.904
39.4574 0.871
39.4739 0.800
39.4905 0.849
39.5070 0.882
39.5236 0.882
39.5401 0.871
39.5567 0.800
39.5732 0.981
39.5898 0.822
39.6063 0.773
39.6228 0.866
39.6394 0.953
39.6559 0.822
39.6725 0.734
39.6890 0.822
39.7056 0.860
39.7221 0.849
39.7387 0.767
39.7552 0.975
39.7718 0.795
39.7883 0.795
39.8048 0.877
39.8214 0.723
39.8379 0.866
39.8545 0.740
39.8710 0.816
39.8876 0.773
39.9041 0.877
39.9207 0.937
39.9372 0.745
39.9538 0.795
39.9703 0.915
39.9868 0.762
40.0034 0.937
40.0199 0.915
40.0365 0.795
40.0530 0.844
40.0696 0.893
40.0861 0.822
40.1027 0.751
40.1192 0.805
40.1358 0.838
40.1523 0.816
40.1688 0.740
40.1854 0.844
40.2019 0.910
40.2185 0.871
40.2350 0.899
40.2516 0.877
40.2681 0.937
40.2847 0.690
40.3012 0.948
40.3178 0.921
40.3343 0.871
40.3508 0.975
40.3674 0.811
40.3839 0.888
40.4005 0.855
40.4170 0.871
40.4336 0.789
40.4501 0.871
40.4667 0.756
40.4832 0.784
40.4998 0.778
40.5163 0.751
40.5328 0.816
40.5494 0.838
40.5659 0.811
40.5825 0.827
40.5990 0.959
40.6156 0.778
40.6321 0.860
40.6487 0.784
40.6652 0.827
40.6818 0.789
40.6983 0.844
40.7148 0.899
40.7314 0.718
40.7479 0.795
40.7645 0.888
40.7810 0.860
40.7976 0.833
40.8141 0.784
40.8307 0.800
40.8472 0.784
40.8637 0.833
40.8803 0.800
40.8968 0.718
40.9134 0.756
40.9299 0.816
40.9465 0.707
40.9630 0.849
40.9796 0.833
40.9961 0.866
41.0127 0.636
41.0292 0.838
41.0457 0.701
41.0623 0.729
41.0788 0.778
41.0954 0.773
41.1119 0.723
41.1285 0.784
41.1450 0.784
41.1616 0.784
41.1781 0.795
41.1947 0.663
41.2112 0.849
41.2277 0.767
41.2443 0.816
41.2608 0.756
41.2774 0.833
41.2939 0.773
41.3105 0.718
41.3270 0.745
41.3436 0.789
41.3601 0.800
41.3767 0.789
41.3932 0.942
41.4097 0.723
41.4263 0.789
41.4428 0.926
41.4594 0.723
41.4759 0.970
41.4925 0.882
41.5090 0.899
41.5256 0.888
41.5421 1.019
41.5587 1.025
41.5752 1.145
41.5917 1.140
41.6083 1.096
41.6248 1.255
41.6414 1.293
41.6579 1.282
41.6745 1.266
41.6910 1.112
41.7076 1.205
41.7241 1.063
41.7407 1.195
41.7572 1.074
41.7737 1.195
41.7903 0.937
41.8068 1.118
41.8234 1.074
41.8399 0.882
41.8565 0.948
41.8730 0.899
41.8896 1.068
41.9061 0.937
41.9227 0.921
41.9392 1.008
41.9557 0.904
41.9723 0.997
41.9888 0.953
42.0054 0.942
42.0219 0.921
42.0385 0.997
42.0550 0.893
42.0716 1.030
42.0881 1.041
42.1047 1.019
42.1212 0.942
42.1377 0.926
42.1543 0.953
42.1708 0.992
42.1874 1.090
42.2039 1.003
42.2205 0.953
42.2370 1.025
42.2536 0.981
42.2701 1.036
42.2867 0.997
42.3032 0.981
42.3197 0.948
42.3363 1.025
42.3528 1.079
42.3694 1.058
42.3859 1.189
42.4025 1.096
42.4190 1.145
42.4356 1.090
42.4521 1.014
42.4687 1.008
42.4852 1.025
42.5017 1.079
42.5183 1.134
42.5348 0.992
42.5514 1.085
42.5679 1.030
42.5845 1.200
42.6010 1.085
42.6176 1.145
42.6341 1.233
42.6507 1.255
42.6672 1.227
42.6837 1.107
42.7003 1.140
42.7168 1.085
42.7334 1.315
42.7499 1.364
42.7665 1.348
42.7830 1.370
42.7996 1.403
42.8161 1.452
42.8327 1.545
42.8492 1.649
42.8657 1.545
42.8823 1.841
42.8988 1.792
42.9154 1.984
42.9319 2.208
42.9485 2.252
42.9650 2.548
42.9816 2.767
42.9981 2.871
43.0147 3.397
43.0312 3.797
43.0477 4.214
43.0643 4.619
43.0808 5.266
43.0974 6.115
43.1139 6.816
43.1305 8.027
43.1470 9.271
43.1636 10.575
43.1801 12.378
43.1967 15.271
43.2132 17.682
43.2297 22.071
43.2463 27.090
43.2628 32.981
43.2794 38.515
43.2959 45.704
43.3125 48.400
43.3290 46.855
43.3456 42.679
43.3621 35.759
43.3787 30.893
43.3952 27.342
43.4117 28.175
43.4283 26.011
43.4448 23.638
43.4614 18.477
43.4779 14.499
43.4945 10.164
43.5110 7.167
43.5276 5.332
43.5441 4.345
43.5606 3.918
43.5772 3.167
43.5937 2.871
43.6103 2.515
43.6268 2.340
43.6434 2.203
43.6599 1.786
43.6765 1.671
43.6930 1.693
43.7096 1.655
43.7261 1.792
43.7426 1.490
43.7592 1.496
43.7757 1.326
43.7923 1.293
43.8088 1.173
43.8254 1.266
43.8419 1.184
43.8585 1.293
43.8750 1.249
43.8916 1.386
43.9081 1.008
43.9246 1.222
43.9412 1.288
43.9577 1.162
43.9743 1.003
43.9908 0.932
44.0074 1.107
44.0239 1.156
44.0405 0.970
44.0570 1.134
44.0736 0.811
44.0901 1.030
44.1066 0.877
44.1232 0.910
44.1397 0.926
44.1563 0.981
44.1728 0.789
44.1894 0.833
44.2059 0.997
44.2225 0.888
44.2390 0.904
44.2556 0.893
44.2721 0.805
44.2886 0.833
44.3052 0.800
44.3217 0.822
44.3383 0.882
44.3548 0.893
44.3714 0.855
44.3879 0.915
44.4045 0.773
44.4210 0.910
44.4376 0.833
44.4541 0.893
44.4706 0.816
44.4872 0.827
44.5037 0.745
44.5203 0.937
44.5368 0.899
44.5534 0.860
44.5699 0.953
44.5865 0.877
44.6030 0.800
44.6196 0.860
44.6361 0.948
44.6526 0.893
44.6692 0.893
44.6857 0.871
44.7023 0.740
44.7188 0.745
44.7354 0.740
44.7519 0.762
44.7685 0.718
44.7850 0.723
44.8016 0.893
44.8181 0.915
44.8346 0.795
44.8512 0.877
44.8677 0.844
44.8843 0.745
44.9008 0.789
44.9174 0.778
44.9339 0.663
44.9505 0.751
44.9670 0.658
44.9836 0.849
45.0001 0.816
45.0166 0.756
45.0332 0.811
45.0497 0.822
45.0663 0.932
45.0828 0.816
45.0994 0.767
45.1159 0.712
45.1325 0.740
45.1490 0.833
45.1656 0.838
45.1821 0.795
45.1986 0.718
45.2152 0.849
45.2317 0.833
45.2483 0.816
45.2648 0.833
45.2814 0.805
45.2979 0.729
45.3145 0.795
45.3310 0.718
45.3476 0.767
45.3641 0.805
45.3806 0.762
45.3972 0.712
45.4137 0.729
45.4303 0.718
45.4468 0.784
45.4634 0.778
45.4799 0.778
45.4965 0.756
45.5130 0.981
45.5296 0.756
45.5461 0.767
45.5626 0.795
45.5792 0.773
45.5957 0.789
45.6123 0.805
45.6288 0.701
45.6454 0.871
45.6619 0.756
45.6785 0.718
45.6950 0.740
45.7116 0.740
45.7281 0.844
45.7446 0.833
45.7612 0.762
45.7777 0.745
45.7943 0.745
45.8108 0.729
45.8274 0.756
45.8439 0.718
45.8605 0.745
45.8770 0.899
45.8936 0.899
45.9101 0.773
45.9266 0.816
45.9432 0.822
45.9597 0.827
45.9763 0.827
45.9928 0.882
46.0094 0.871
46.0259 0.915
46.0425 0.970
46.0590 1.030
46.0756 1.173
46.0921 1.167
46.1086 1.249
46.1252 1.304
46.1417 1.271
46.1583 1.156
46.1748 1.310
46.1914 1.162
46.2079 1.123
46.2245 1.041
46.2410 1.079
46.2575 0.932
46.2741 0.959
46.2906 0.970
46.3072 0.871
46.3237 0.784
46.3403 0.679
46.3568 0.789
46.3734 0.526
46.3899 0.679
46.4065 0.756
46.4230 0.756
46.4395 0.723
46.4561 0.701
46.4726 0.696
46.4892 0.789
46.5057 0.553
46.5223 0.707
46.5388 0.690
46.5554 0.679
46.5719 0.603
46.5885 0.767
46.6050 0.685
46.6215 0.756
46.6381 0.685
46.6546 0.652
46.6712 0.707
46.6877 0.778
46.7043 0.784
46.7208 0.619
46.7374 0.647
46.7539 0.685
46.7705 0.800
46.7870 0.729
46.8035 0.740
46.8201 0.718
46.8366 0.712
46.8532 0.712
46.8697 0.696
46.8863 0.811
46.9028 0.690
46.9194 0.751
46.9359 0.614
46.9525 0.592
46.9690 0.701
46.9855 0.668
47.0021 0.778
47.0186 0.762
47.0352 0.707
47.0517 0.734
47.0683 0.597
47.0848 0.778
47.1014 0.630
47.1179 0.586
47.1345 0.729
47.1510 0.718
47.1675 0.789
47.1841 0.707
47.2006 0.597
47.2172 0.707
47.2337 0.647
47.2503 0.685
47.2668 0.581
47.2834 0.647
47.2999 0.625
47.3165 0.729
47.3330 0.734
47.3495 0.822
47.3661 0.636
47.3826 0.603
47.3992 0.564
47.4157 0.663
47.4323 0.707
47.4488 0.668
47.4654 0.707
47.4819 0.718
47.4985 0.625
47.5150 0.690
47.5315 0.603
47.5481 0.641
47.5646 0.614
47.5812 0.575
47.5977 0.532
47.6143 0.696
47.6308 0.756
47.6474 0.641
47.6639 0.756
47.6805 0.647
47.6970 0.729
47.7135 0.674
47.7301 0.685
47.7466 0.586
47.7632 0.723
47.7797 0.575
47.7963 0.592
47.8128 0.619
47.8294 0.625
47.8459 0.597
47.8625 0.756
47.8790 0.575
47.8955 0.636
47.9121 0.636
47.9286 0.679
47.9452 0.532
47.9617 0.652
47.9783 0.630
47.9948 0.663
48.0114 0.570
48.0279 0.696
48.0445 0.652
48.0610 0.603
48.0775 0.575
48.0941 0.575
48.1106 0.532
48.1272 0.636
48.1437 0.734
48.1603 0.740
48.1768 0.647
48.1934 0.789
48.2099 0.614
48.2265 0.701
48.2430 0.723
48.2595 0.608
48.2761 0.581
48.2926 0.652
48.3092 0.740
48.3257 0.581
48.3423 0.652
48.3588 0.707
48.3754 0.575
48.3919 0.674
48.4085 0.630
48.4250 0.515
48.4415 0.553
48.4581 0.526
48.4746 0.597
48.4912 0.592
48.5077 0.575
48.5243 0.619
48.5408 0.537
48.5574 0.647
48.5739 0.564
48.5905 0.526
48.6070 0.603
48.6235 0.597
48.6401 0.641
48.6566 0.597
48.6732 0.647
48.6897 0.630
48.7063 0.718
48.7228 0.581
48.7394 0.636
48.7559 0.542
48.7725 0.619
48.7890 0.619
48.8055 0.674
48.8221 0.619
48.8386 0.636
48.8552 0.592
48.8717 0.553
48.8883 0.548
48.9048 0.603
48.9214 0.586
48.9379 0.625
48.9545 0.586
48.9710 0.630
48.9875 0.575
49.0041 0.614
49.0206 0.575
49.0372 0.570
49.0537 0.674
49.0703 0.537
49.0868 0.548
49.1034 0.625
49.1199 0.537
49.1364 0.537
49.1530 0.526
49.1695 0.515
49.1861 0.586
49.2026 0.652
49.2192 0.718
49.2357 0.630
49.2523 0.685
49.2688 0.614
49.2854 0.614
49.3019 0.559
49.3184 0.521
49.3350 0.575
49.3515 0.559
49.3681 0.526
49.3846 0.712
49.4012 0.515
49.4177 0.553
49.4343 0.521
49.4508 0.696
49.4674 0.647
49.4839 0.652
49.5004 0.625
49.5170 0.663
49.5335 0.762
49.5501 0.636
49.5666 0.767
49.5832 0.696
49.5997 0.778
49.6163 0.767
49.6328 0.855
49.6494 0.904
49.6659 0.811
49.6824 0.899
49.6990 0.970
49.7155 1.003
49.7321 0.855
49.7486 0.910
49.7652 1.003
49.7817 1.058
49.7983 0.805
49.8148 0.921
49.8314 0.849
49.8479 0.888
49.8644 0.762
49.8810 0.668
49.8975 0.827
49.9141 0.630
49.9306 0.608
49.9472 0.619
49.9637 0.575
49.9803 0.745
49.9968 0.679
50.0134 0.685
50.0299 0.696
50.0464 0.668
50.0630 0.658
50.0795 0.707
50.0961 0.679
50.1126 0.625
50.1292 0.603
50.1457 0.493
50.1623 0.488
50.1788 0.532
50.1954 0.433
50.2119 0.625
50.2284 0.592
50.2450 0.564
50.2615 0.521
50.2781 0.614
50.2946 0.658
50.3112 0.707
50.3277 0.482
50.3443 0.592
50.3608 0.586
50.3774 0.652
50.3939 0.526
50.4104 0.592
50.4270 0.636
50.4435 0.592
50.4601 0.603
50.4766 0.564
50.4932 0.652
50.5097 0.608
50.5263 0.630
50.5428 0.532
50.5594 0.586
50.5759 0.685
50.5924 0.608
50.6090 0.559
50.6255 0.723
50.6421 0.685
50.6586 0.625
50.6752 0.581
50.6917 0.663
50.7083 0.526
50.7248 0.773
50.7414 0.690
50.7579 0.740
50.7744 0.608
50.7910 0.652
50.8075 0.625
50.8241 0.559
50.8406 0.729
50.8572 0.751
50.8737 0.663
50.8903 0.668
50.9068 0.696
50.9234 0.619
50.9399 0.679
50.9564 0.592
50.9730 0.696
50.9895 0.630
51.0061 0.636
51.0226 0.603
51.0392 0.614
51.0557 0.581
51.0723 0.679
51.0888 0.608
51.1054 0.570
51.1219 0.668
51.1384 0.581
51.1550 0.564
51.1715 0.690
51.1881 0.564
51.2046 0.647
51.2212 0.658
51.2377 0.740
51.2543 0.636
51.2708 0.707
51.2874 0.647
51.3039 0.564
51.3204 0.619
51.3370 0.679
51.3535 0.603
51.3701 0.729
51.3866 0.630
51.4032 0.773
51.4197 0.729
51.4363 0.652
51.4528 0.811
51.4694 0.729
51.4859 0.707
51.5024 0.822
51.5190 0.778
51.5355 0.696
51.5521 0.740
51.5686 0.674
51.5852 0.614
51.6017 0.701
51.6183 0.740
51.6348 0.663
51.6514 0.767
51.6679 0.647
51.6844 0.696
51.7010 0.603
51.7175 0.625
51.7341 0.674
51.7506 0.663
51.7672 0.641
51.7837 0.581
51.8003 0.718
51.8168 0.658
51.8333 0.707
51.8499 0.773
51.8664 0.866
51.8830 0.844
51.8995 0.855
51.9161 0.740
51.9326 0.773
51.9492 0.838
51.9657 0.784
51.9823 0.893
51.9988 0.844
52.0153 0.970
52.0319 1.074
52.0484 1.036
52.0650 0.948
52.0815 1.063
52.0981 1.063
52.1146 1.332
52.1312 1.353
52.1477 1.326
52.1643 1.468
52.1808 1.742
52.1973 1.923
52.2139 2.121
52.2304 2.088
52.2470 2.586
52.2635 2.663
52.2801 3.189
52.2966 3.468
52.3132 4.066
52.3297 4.603
52.3463 5.386
52.3628 5.956
52.3793 7.101
52.3959 8.603
52.4124 10.132
52.4290 11.825
52.4455 14.137
52.4621 16.356
52.4786 18.066
52.4952 20.022
52.5117 20.400
52.5283 18.581
52.5448 15.962
52.5613 12.833
52.5779 11.238
52.5944 10.652
52.6110 10.997
52.6275 10.937
52.6441 10.756
52.6606 9.452
52.6772 8.055
52.6937 6.460
52.7103 4.668
52.7268 3.775
52.7433 2.630
52.7599 2.159
52.7764 1.753
52.7930 1.770
52.8095 1.485
52.8261 1.282
52.8426 1.255
52.8592 1.107
52.8757 1.184
52.8923 1.058
52.9088 1.096
52.9253 0.926
52.9419 0.866
52.9584 0.899
52.9750 0.795
52.9915 0.795
53.0081 0.893
53.0246 0.800
53.0412 0.844
53.0577 0.811
53.0743 0.789
53.0908 0.740
53.1073 0.729
53.1239 0.767
53.1404 0.668
53.1570 0.608
53.1735 0.652
53.1901 0.784
53.2066 0.690
53.2232 0.849
53.2397 0.663
53.2563 0.668
53.2728 0.652
53.2893 0.668
53.3059 0.641
53.3224 0.614
53.3390 0.740
53.3555 0.625
53.3721 0.641
53.3886 0.811
53.4052 0.570
53.4217 0.663
53.4383 0.707
53.4548 0.586
53.4713 0.685
53.4879 0.542
53.5044 0.636
53.5210 0.614
53.5375 0.603
53.5541 0.795
53.5706 0.592
53.5872 0.521
53.6037 0.608
53.6203 0.603
53.6368 0.603
53.6533 0.619
53.6699 0.570
53.6864 0.630
53.7030 0.564
53.7195 0.619
53.7361 0.586
53.7526 0.570
53.7692 0.614
53.7857 0.586
53.8023 0.641
53.8188 0.619
53.8353 0.636
53.8519 0.658
53.8684 0.581
53.8850 0.625
53.9015 0.575
53.9181 0.641
53.9346 0.575
53.9512 0.581
53.9677 0.608
53.9843 0.532
54.0008 0.647
54.0173 0.570
54.0339 0.570
54.0504 0.542
54.0670 0.548
54.0835 0.515
54.1001 0.559
54.1166 0.570
54.1332 0.597
54.1497 0.444
54.1663 0.559
54.1828 0.526
54.1993 0.679
54.2159 0.537
54.2324 0.575
54.2490 0.652
54.2655 0.570
54.2821 0.510
54.2986 0.548
54.3152 0.548
54.3317 0.510
54.3483 0.592
54.3648 0.636
54.3813 0.466
54.3979 0.608
54.4144 0.499
54.4310 0.559
54.4475 0.603
54.4641 0.614
54.4806 0.537
54.4972 0.526
54.5137 0.548
54.5302 0.608
54.5468 0.504
54.5633 0.537
54.5799 0.608
54.5964 0.548
54.6130 0.581
54.6295 0.570
54.6461 0.597
54.6626 0.526
54.6792 0.608
54.6957 0.586
54.7122 0.630
54.7288 0.581
54.7453 0.504
54.7619 0.521
54.7784 0.559
54.7950 0.521
54.8115 0.510
54.8281 0.559
54.8446 0.559
54.8612 0.641
54.8777 0.499
54.8942 0.570
54.9108 0.592
54.9273 0.488
54.9439 0.559
54.9604 0.548
54.9770 0.455
54.9935 0.597
55.0101 0.504
55.0266 0.559
55.0432 0.564
55.0597 0.548
55.0762 0.471
55.0928 0.575
55.1093 0.564
55.1259 0.592
55.1424 0.701
55.1590 0.532
55.1755 0.614
55.1921 0.630
55.2086 0.559
55.2252 0.603
55.2417 0.630
55.2582 0.592
55.2748 0.658
55.2913 0.559
55.3079 0.515
55.3244 0.597
55.3410 0.625
55.3575 0.658
55.3741 0.614
55.3906 0.663
55.4072 0.647
55.4237 0.674
55.4402 0.679
55.4568 0.630
55.4733 0.581
55.4899 0.619
55.5064 0.762
55.5230 0.630
55.5395 0.647
55.5561 0.767
55.5726 0.575
55.5892 0.740
55.6057 0.658
55.6222 0.521
55.6388 0.619
55.6553 0.592
55.6719 0.548
55.6884 0.614
55.7050 0.668
55.7215 0.570
55.7381 0.647
55.7546 0.690
55.7712 0.647
55.7877 0.619
55.8042 0.548
55.8208 0.625
55.8373 0.679
55.8539 0.729
55.8704 0.647
55.8870 0.515
55.9035 0.592
55.9201 0.581
55.9366 0.718
55.9532 0.641
55.9697 0.658
55.9862 0.696
56.0028 0.679
56.0193 0.701
56.0359 0.614
56.0524 0.658
56.0690 0.679
56.0855 0.762
56.1021 0.701
56.1186 0.597
56.1352 0.608
56.1517 0.679
56.1682 0.674
56.1848 0.630
56.2013 0.734
56.2179 0.619
56.2344 0.575
56.2510 0.658
56.2675 0.647
56.2841 0.636
56.3006 0.729
56.3172 0.658
56.3337 0.652
56.3502 0.822
56.3668 0.658
56.3833 0.685
56.3999 0.723
56.4164 0.652
56.4330 0.696
56.4495 0.597
56.4661 0.603
56.4826 0.712
56.4992 0.734
56.5157 0.784
56.5322 0.690
56.5488 0.767
56.5653 0.784
56.5819 0.685
56.5984 0.740
56.6150 0.811
56.6315 0.701
56.6481 0.827
56.6646 0.866
56.6812 0.833
56.6977 0.784
56.7142 0.893
56.7308 0.795
56.7473 0.899
56.7639 0.866
56.7804 0.893
56.7970 0.849
56.8135 0.959
56.8301 0.975
56.8466 0.975
56.8632 0.986
56.8797 1.140
56.8962 1.123
56.9128 1.151
56.9293 1.255
56.9459 1.255
56.9624 1.490
56.9790 1.479
56.9955 1.589
57.0121 1.671
57.0286 1.940
57.0452 1.962
57.0617 1.962
57.0782 2.460
57.0948 2.811
57.1113 2.937
57.1279 3.167
57.1444 3.753
57.1610 4.044
57.1775 4.482
57.1941 4.904
57.2106 5.304
57.2272 6.581
57.2437 6.915
57.2602 7.847
57.2768 9.419
57.2933 10.438
57.3099 12.351
57.3264 15.014
57.3430 17.556
57.3595 20.712
57.3761 24.658
57.3926 28.647
57.4091 33.085
57.4257 37.178
57.4422 39.353
57.4588 38.225
57.4753 34.121
57.4919 29.249
57.5084 24.038
57.5250 20.811
57.5415 19.134
57.5581 19.321
57.5746 19.688
57.5911 20.345
57.6077 19.912
57.6242 17.485
57.6408 14.290
57.6573 11.145
57.6739 7.655
57.6904 5.436
57.7070 4.466
57.7235 3.507
57.7401 2.953
57.7566 2.668
57.7731 2.247
57.7897 2.022
57.8062 1.945
57.8228 1.710
57.8393 1.726
57.8559 1.463
57.8724 1.233
57.8890 1.162
57.9055 1.140
57.9221 1.079
57.9386 1.195
57.9551 1.014
57.9717 0.959
57.9882 1.008
58.0048 0.888
58.0213 0.948
58.0379 0.942
58.0544 0.942
58.0710 0.910
58.0875 0.877
58.1041 0.992
58.1206 0.882
58.1371 0.866
58.1537 0.805
58.1702 0.827
58.1868 0.795
58.2033 0.833
58.2199 0.745
58.2364 0.784
58.2530 0.707
58.2695 0.685
58.2861 0.756
58.3026 0.663
58.3191 0.767
58.3357 0.718
58.3522 0.647
58.3688 0.685
58.3853 0.729
58.4019 0.696
58.4184 0.658
58.4350 0.630
58.4515 0.614
58.4681 0.778
58.4846 0.712
58.5011 0.586
58.5177 0.789
58.5342 0.723
58.5508 0.647
58.5673 0.586
58.5839 0.685
58.6004 0.679
58.6170 0.592
58.6335 0.592
58.6501 0.658
58.6666 0.619
58.6831 0.630
58.6997 0.603
58.7162 0.603
58.7328 0.471
58.7493 0.564
58.7659 0.658
58.7824 0.625
58.7990 0.570
58.8155 0.614
58.8321 0.636
58.8486 0.603
58.8651 0.636
58.8817 0.718
58.8982 0.723
58.9148 0.542
58.9313 0.526
58.9479 0.647
58.9644 0.685
58.9810 0.510
58.9975 0.701
59.0141 0.553
59.0306 0.663
59.0471 0.614
59.0637 0.466
59.0802 0.614
59.0968 0.575
59.1133 0.608
59.1299 0.493
59.1464 0.581
59.1630 0.712
59.1795 0.652
59.1961 0.614
59.2126 0.619
59.2291 0.614
59.2457 0.559
59.2622 0.712
59.2788 0.614
59.2953 0.696
59.3119 0.679
59.3284 0.581
59.3450 0.614
59.3615 0.614
59.3781 0.762
59.3946 0.745
59.4111 0.575
59.4277 0.767
59.4442 0.729
59.4608 0.734
59.4773 0.784
59.4939 0.762
59.5104 0.860
59.5270 0.795
59.5435 0.767
59.5601 0.822
59.5766 0.866
59.5931 1.162
59.6097 1.189
59.6262 1.299
59.6428 1.381
59.6593 1.468
59.6759 1.507
59.6924 1.721
59.7090 1.468
59.7255 1.271
59.7421 1.216
59.7586 1.090
59.7751 1.118
59.7917 1.008
59.8082 0.915
59.8248 0.926
59.8413 0.959
59.8579 1.019
59.8744 1.008
59.8910 0.915
59.9075 0.701
59.9241 0.756
59.9406 0.712
59.9571 0.685
59.9737 0.690
59.9902 0.586
60.0068 0.636
60.0233 0.553
60.0399 0.597
60.0564 0.466
60.0730 0.581
60.0895 0.449
60.1060 0.619
60.1226 0.564
60.1391 0.532
60.1557 0.521
60.1722 0.542
60.1888 0.658
60.2053 0.658
60.2219 0.526
60.2384 0.564
60.2550 0.521
60.2715 0.559
60.2880 0.542
60.3046 0.553
60.3211 0.564
60.3377 0.438
60.3542 0.636
60.3708 0.603
60.3873 0.537
60.4039 0.515
60.4204 0.493
60.4370 0.564
60.4535 0.608
60.4700 0.597
60.4866 0.619
60.5031 0.532
60.5197 0.608
60.5362 0.668
60.5528 0.553
60.5693 0.614
60.5859 0.499
60.6024 0.521
60.6190 0.570
60.6355 0.658
60.6520 0.685
60.6686 0.641
60.6851 0.619
60.7017 0.542
60.7182 0.625
60.7348 0.696
60.7513 0.893
60.7679 0.701
60.7844 0.805
60.8010 0.751
60.8175 0.849
60.8340 0.877
60.8506 0.877
60.8671 0.926
60.8837 0.899
60.9002 0.997
60.9168 0.981
60.9333 1.211
60.9499 1.315
60.9664 1.408
60.9830 1.321
60.9995 1.633
61.0160 1.732
61.0326 2.022
61.0491 2.274
61.0657 2.312
61.0822 2.433
61.0988 2.307
61.1153 2.460
61.1319 2.603
61.1484 2.466
61.1650 2.570
61.1815 2.849
61.1980 3.447
61.2146 3.858
61.2311 4.049
61.2477 4.000
61.2642 3.605
61.2808 3.299
61.2973 2.614
61.3139 2.296
61.3304 2.055
61.3470 1.797
61.3635 2.071
61.3800 2.011
61.3966 2.071
61.4131 1.978
61.4297 1.847
61.4462 1.573
61.4628 1.419
61.4793 1.134
61.4959 1.134
61.5124 0.855
61.5290 0.751
61.5455 0.718
61.5620 0.707
61.5786 0.630
61.5951 0.636
61.6117 0.647
61.6282 0.548
61.6448 0.603
61.6613 0.625
61.6779 0.586
61.6944 0.597
61.7110 0.564
61.7275 0.614
61.7440 0.608
61.7606 0.592
61.7771 0.603
61.7937 0.510
61.8102 0.466
61.8268 0.548
61.8433 0.603
61.8599 0.532
61.8764 0.548
61.8930 0.521
61.9095 0.559
61.9260 0.471
61.9426 0.471
61.9591 0.548
61.9757 0.553
61.9922 0.581
62.0088 0.482
62.0253 0.389
62.0419 0.477
62.0584 0.389
62.0750 0.559
62.0915 0.482
62.1080 0.411
62.1246 0.521
62.1411 0.466
62.1577 0.477
62.1742 0.548
62.1908 0.532
62.2073 0.647
62.2239 0.521
62.2404 0.504
62.2570 0.537
62.2735 0.438
62.2900 0.438
62.3066 0.460
62.3231 0.548
62.3397 0.433
62.3562 0.510
62.3728 0.510
62.3893 0.548
62.4059 0.499
62.4224 0.471
62.4390 0.559
62.4555 0.493
62.4720 0.466
62.4886 0.466
62.5051 0.542
62.5217 0.471
62.5382 0.619
62.5548 0.471
62.5713 0.416
62.5879 0.564
62.6044 0.438
62.6210 0.581
62.6375 0.488
62.6540 0.504
62.6706 0.433
62.6871 0.471
62.7037 0.510
62.7202 0.581
62.7368 0.477
62.7533 0.548
62.7699 0.510
62.7864 0.477
62.8029 0.586
62.8195 0.482
62.8360 0.482
62.8526 0.488
62.8691 0.504
62.8857 0.515
62.9022 0.526
62.9188 0.532
62.9353 0.466
62.9519 0.466
62.9684 0.510
62.9849 0.488
63.0015 0.460
63.0180 0.400
63.0346 0.504
63.0511 0.532
63.0677 0.493
63.0842 0.438
63.1008 0.521
63.1173 0.460
63.1339 0.427
63.1504 0.515
63.1669 0.416
63.1835 0.433
63.2000 0.466
63.2166 0.455
63.2331 0.537
63.2497 0.482
63.2662 0.488
63.2828 0.499
63.2993 0.515
63.3159 0.488
63.3324 0.438
63.3489 0.526
63.3655 0.477
63.3820 0.477
63.3986 0.510
63.4151 0.471
63.4317 0.553
63.4482 0.532
63.4648 0.395
63.4813 0.493
63.4979 0.488
63.5144 0.455
63.5309 0.471
63.5475 0.477
63.5640 0.504
63.5806 0.422
63.5971 0.526
63.6137 0.422
63.6302 0.389
63.6468 0.411
63.6633 0.460
63.6799 0.395
63.6964 0.488
63.7129 0.460
63.7295 0.477
63.7460 0.416
63.7626 0.510
63.7791 0.444
63.7957 0.411
63.8122 0.499
63.8288 0.493
63.8453 0.411
63.8619 0.466
63.8784 0.444
63.8949 0.477
63.9115 0.427
63.9280 0.526
63.9446 0.559
63.9611 0.477
63.9777 0.416
63.9942 0.504
64.0108 0.499
64.0273 0.570
64.0439 0.532
64.0604 0.455
64.0769 0.482
64.0935 0.499
64.1100 0.482
64.1266 0.460
64.1431 0.499
64.1597 0.515
64.1762 0.493
64.1928 0.548
64.2093 0.444
64.2259 0.537
64.2424 0.553
64.2589 0.488
64.2755 0.444
64.2920 0.526
64.3086 0.460
64.3251 0.455
64.3417 0.488
64.3582 0.444
64.3748 0.532
64.3913 0.526
64.4079 0.444
64.4244 0.510
64.4409 0.515
64.4575 0.542
64.4740 0.427
64.4906 0.515
64.5071 0.411
64.5237 0.433
64.5402 0.515
64.5568 0.521
64.5733 0.548
64.5899 0.488
64.6064 0.521
64.6229 0.564
64.6395 0.564
64.6560 0.510
64.6726 0.471
64.6891 0.455
64.7057 0.493
64.7222 0.449
64.7388 0.504
64.7553 0.488
64.7719 0.438
64.7884 0.504
64.8049 0.532
64.8215 0.471
64.8380 0.548
64.8546 0.526
64.8711 0.614
64.8877 0.575
64.9042 0.482
64.9208 0.499
64.9373 0.499
64.9539 0.444
64.9704 0.537
64.9869 0.493
65.0035 0.460
65.0200 0.488
65.0366 0.455
65.0531 0.625
65.0697 0.405
65.0862 0.471
65.1028 0.499
65.1193 0.532
65.1359 0.608
65.1524 0.614
65.1689 0.603
65.1855 0.515
65.2020 0.499
65.2186 0.433
65.2351 0.537
65.2517 0.575
65.2682 0.488
65.2848 0.460
65.3013 0.586
65.3179 0.526
65.3344 0.471
65.3509 0.499
65.3675 0.575
65.3840 0.395
65.4006 0.592
65.4171 0.581
65.4337 0.553
65.4502 0.564
65.4668 0.515
65.4833 0.597
65.4999 0.581
65.5164 0.521
65.5329 0.586
65.5495 0.581
65.5660 0.586
65.5826 0.553
65.5991 0.701
65.6157 0.570
65.6322 0.603
65.6488 0.537
65.6653 0.504
65.6818 0.679
65.6984 0.630
65.7149 0.641
65.7315 0.581
65.7480 0.630
65.7646 0.652
65.7811 0.504
65.7977 0.658
65.8142 0.679
65.8308 0.685
65.8473 0.674
65.8638 0.745
65.8804 0.789
65.8969 0.762
65.9135 0.773
65.9300 0.723
65.9466 0.800
65.9631 0.833
65.9797 0.915
65.9962 0.926
66.0128 0.986
66.0293 0.948
66.0458 1.184
66.0624 1.211
66.0789 1.249
66.0955 1.310
66.1120 1.518
66.1286 1.282
66.1451 1.666
66.1617 1.836
66.1782 1.918
66.1948 1.973
66.2113 2.279
66.2278 2.581
66.2444 2.756
66.2609 3.118
66.2775 3.458
66.2940 4.159
66.3106 4.433
66.3271 5.627
66.3437 6.438
66.3602 7.162
66.3768 8.071
66.3933 9.732
66.4098 11.134
66.4264 12.800
66.4429 13.803
66.4595 13.978
66.4760 13.501
66.4926 11.003
66.5091 8.921
66.5257 8.000
66.5422 6.592
66.5588 6.153
66.5753 6.208
66.5918 6.762
66.6084 7.178
66.6249 7.447
66.6415 7.419
66.6580 7.370
66.6746 5.825
66.6911 4.811
66.7077 3.655
66.7242 2.641
66.7408 2.263
66.7573 1.940
66.7738 1.589
66.7904 1.364
66.8069 1.255
66.8235 1.129
66.8400 1.090
66.8566 1.107
66.8731 1.025
66.8897 1.025
66.9062 0.921
66.9228 0.926
66.9393 0.844
66.9558 0.910
66.9724 0.756
66.9889 0.756
67.0055 1.014
67.0220 0.795
67.0386 0.729
67.0551 0.712
67.0717 0.816
67.0882 0.701
67.1048 0.592
67.1213 0.685
67.1378 0.625
67.1544 0.773
67.1709 0.679
67.1875 0.751
67.2040 0.762
67.2206 0.729
67.2371 0.844
67.2537 0.789
67.2702 0.636
67.2868 0.811
67.3033 0.734
67.3198 0.789
67.3364 0.767
67.3529 0.647
67.3695 0.773
67.3860 0.926
67.4026 0.701
67.4191 0.778
67.4357 0.740
67.4522 0.712
67.4688 0.734
67.4853 0.762
67.5018 0.844
67.5184 0.822
67.5349 0.904
67.5515 0.723
67.5680 0.888
67.5846 0.811
67.6011 0.827
67.6177 1.068
67.6342 0.838
67.6508 0.910
67.6673 1.030
67.6838 1.167
67.7004 1.238
67.7169 1.310
67.7335 1.337
67.7500 1.436
67.7666 1.605
67.7831 1.770
67.7997 1.956
67.8162 2.033
67.8328 1.978
67.8493 2.334
67.8658 2.460
67.8824 2.838
67.8989 3.025
67.9155 3.562
67.9320 3.600
67.9486 4.537
67.9651 4.964
67.9817 5.836
67.9982 6.477
68.0148 8.121
68.0313 8.866
68.0478 10.427
68.0644 12.537
68.0809 14.899
68.0975 16.647
68.1140 18.674
68.1306 19.912
68.1471 20.542
68.1637 19.825
68.1802 16.844
68.1968 13.808
68.2133 11.907
68.2298 10.038
68.2464 9.118
68.2629 8.822
68.2795 9.332
68.2960 10.170
68.3126 9.830
68.3291 10.449
68.3457 10.323
68.3622 9.518
68.3787 7.512
68.3953 6.011
68.4118 4.674
68.4284 3.271
68.4449 2.592
68.4615 2.159
68.4780 2.077
68.4946 1.847
68.5111 1.529
68.5277 1.518
68.5442 1.249
68.5607 1.162
68.5773 1.090
68.5938 0.877
68.6104 0.970
68.6269 0.953
68.6435 0.855
68.6600 0.811
68.6766 0.795
68.6931 0.718
68.7097 0.696
68.7262 0.652
68.7427 0.740
68.7593 0.723
68.7758 0.652
68.7924 0.603
68.8089 0.696
68.8255 0.789
68.8420 0.701
68.8586 0.570
68.8751 0.581
68.8917 0.696
68.9082 0.630
68.9247 0.641
68.9413 0.581
68.9578 0.564
68.9744 0.597
68.9909 0.586
69.0075 0.482
69.0240 0.559
69.0406 0.586
69.0571 0.427
69.0737 0.515
69.0902 0.510
69.1067 0.510
69.1233 0.652
69.1398 0.504
69.1564 0.493
69.1729 0.537
69.1895 0.384
69.2060 0.526
69.2226 0.510
69.2391 0.532
69.2557 0.499
69.2722 0.553
69.2887 0.532
69.3053 0.455
69.3218 0.510
69.3384 0.537
69.3549 0.592
69.3715 0.499
69.3880 0.389
69.4046 0.548
69.4211 0.532
69.4377 0.455
69.4542 0.658
69.4707 0.581
69.4873 0.499
69.5038 0.466
69.5204 0.499
69.5369 0.400
69.5535 0.510
69.5700 0.482
69.5866 0.466
69.6031 0.378
69.6197 0.499
69.6362 0.575
69.6527 0.411
69.6693 0.532
69.6858 0.422
69.7024 0.504
69.7189 0.477
69.7355 0.553
69.7520 0.384
69.7686 0.482
69.7851 0.455
69.8017 0.460
69.8182 0.400
69.8347 0.559
69.8513 0.471
69.8678 0.455
69.8844 0.400
69.9009 0.427
69.9175 0.455
69.9340 0.482
69.9506 0.493
69.9671 0.482
69.9837 0.455
70.0002 0.526
