'Id: "" Comment: "" Operator: "Administrator" Anode: "Cu" Scantype: "Locked Coupled" TimePerStep: "182.5" X: "0" Y: "0" Z: "0" 
20.0000 2.537
20.0165 2.455
20.0331 2.274
20.0496 2.345
20.0662 2.186
20.0827 2.433
20.0993 2.416
20.1158 2.493
20.1324 2.449
20.1489 2.340
20.1655 2.367
20.1820 2.340
20.1985 2.285
20.2151 2.312
20.2316 2.340
20.2482 2.159
20.2647 2.318
20.2813 2.329
20.2978 2.208
20.3144 2.477
20.3309 2.016
20.3475 2.170
20.3640 2.274
20.3805 2.247
20.3971 2.088
20.4136 2.323
20.4302 2.175
20.4467 2.175
20.4633 2.230
20.4798 2.225
20.4964 2.104
20.5129 2.170
20.5295 2.110
20.5460 2.181
20.5625 2.389
20.5791 2.186
20.5956 2.175
20.6122 2.279
20.6287 2.356
20.6453 2.247
20.6618 2.334
20.6784 2.236
20.6949 2.230
20.7115 2.132
20.7280 2.170
20.7445 2.055
20.7611 2.175
20.7776 2.077
20.7942 2.312
20.8107 2.033
20.8273 2.340
20.8438 2.351
20.8604 2.016
20.8769 2.164
20.8935 2.214
20.9100 2.186
20.9265 2.126
20.9431 2.066
20.9596 2.093
20.9762 2.099
20.9927 2.230
21.0093 2.088
21.0258 2.121
21.0424 2.258
21.0589 2.164
21.0755 2.219
21.0920 2.236
21.1085 2.153
21.1251 2.334
21.1416 2.274
21.1582 2.115
21.1747 2.181
21.1913 2.323
21.2078 2.318
21.2244 2.142
21.2409 2.164
21.2575 2.307
21.2740 2.082
21.2905 2.214
21.3071 1.962
21.3236 2.258
21.3402 2.132
21.3567 2.164
21.3733 2.066
21.3898 2.132
21.4064 1.984
21.4229 2.175
21.4394 2.279
21.4560 2.192
21.4725 1.978
21.4891 2.181
21.5056 2.214
21.5222 2.049
21.5387 1.896
21.5553 2.132
21.5718 2.066
21.5884 2.044
21.6049 2.044
21.6214 2.142
21.6380 2.110
21.6545 2.236
21.6711 2.362
21.6876 2.252
21.7042 2.005
21.7207 1.885
21.7373 2.088
21.7538 2.088
21.7704 2.137
21.7869 2.367
21.8034 2.296
21.8200 2.011
21.8365 2.049
21.8531 2.049
21.8696 2.236
21.8862 1.901
21.9027 1.896
21.9193 2.197
21.9358 1.934
21.9524 2.214
21.9689 2.203
21.9854 2.060
22.0020 2.099
22.0185 2.016
22.0351 2.521
22.0516 2.153
22.0682 2.038
22.0847 2.049
22.1013 2.027
22.1178 2.022
22.1344 1.995
22.1509 2.022
22.1674 1.995
22.1840 1.951
22.2005 1.923
22.2171 2.142
22.2336 2.022
22.2502 1.874
22.2667 1.956
22.2833 1.918
22.2998 1.978
22.3164 2.000
22.3329 1.978
22.3494 2.016
22.3660 2.000
22.3825 2.055
22.3991 2.077
22.4156 1.967
22.4322 1.786
22.4487 2.142
22.4653 1.995
22.4818 1.830
22.4984 1.951
22.5149 2.038
22.5314 1.825
22.5480 1.907
22.5645 1.879
22.5811 1.984
22.5976 1.836
22.6142 1.989
22.6307 2.044
22.6473 1.923
22.6638 1.940
22.6804 1.836
22.6969 1.764
22.7134 2.033
22.7300 1.984
22.7465 2.000
22.7631 2.060
22.7796 1.934
22.7962 2.060
22.8127 1.671
22.8293 1.940
22.8458 2.000
22.8624 2.044
22.8789 1.803
22.8954 2.060
22.9120 1.995
22.9285 1.918
22.9451 2.011
22.9616 2.066
22.9782 1.825
22.9947 2.060
23.0113 2.038
23.0278 1.945
23.0444 1.956
23.0609 1.825
23.0774 2.060
23.0940 2.022
23.1105 1.901
23.1271 1.929
23.1436 1.967
23.1602 1.830
23.1767 2.027
23.1933 1.858
23.2098 1.858
23.2264 2.038
23.2429 1.956
23.2594 1.759
23.2760 1.764
23.2925 1.918
23.3091 1.874
23.3256 1.929
23.3422 1.792
23.3587 1.803
23.3753 1.874
23.3918 1.797
23.4084 1.885
23.4249 1.775
23.4414 1.852
23.4580 1.945
23.4745 1.704
23.4911 1.967
23.5076 1.825
23.5242 1.967
23.5407 1.912
23.5573 1.847
23.5738 1.874
23.5904 1.852
23.6069 1.808
23.6234 1.852
23.6400 1.890
23.6565 1.858
23.6731 1.819
23.6896 1.638
23.7062 1.858
23.7227 1.896
23.7393 1.808
23.7558 1.929
23.7724 1.907
23.7889 1.907
23.8054 1.951
23.8220 1.803
23.8385 2.066
23.8551 1.934
23.8716 1.907
23.8882 1.764
23.9047 1.912
23.9213 1.759
23.9378 1.973
23.9544 2.071
23.9709 2.000
23.9874 1.863
24.0040 1.978
24.0205 2.071
24.0371 1.945
24.0536 2.066
24.0702 2.005
24.0867 2.066
24.1033 2.164
24.1198 2.011
24.1364 2.268
24.1529 2.077
24.1694 2.159
24.1860 2.203
24.2025 2.290
24.2191 2.258
24.2356 2.329
24.2522 2.148
24.2687 2.230
24.2853 2.493
24.3018 2.493
24.3183 2.597
24.3349 2.427
24.3514 2.564
24.3680 2.197
24.3845 2.241
24.4011 2.411
24.4176 2.444
24.4342 2.636
24.4507 2.405
24.4673 2.488
24.4838 2.444
24.5003 2.608
24.5169 2.323
24.5334 2.471
24.5500 2.625
24.5665 2.553
24.5831 2.345
24.5996 2.652
24.6162 2.762
24.6327 2.641
24.6493 2.548
24.6658 2.570
24.6823 2.849
24.6989 2.707
24.7154 2.745
24.7320 2.625
24.7485 2.597
24.7651 2.625
24.7816 2.493
24.7982 2.636
24.8147 2.570
24.8313 2.784
24.8478 2.822
24.8643 2.636
24.8809 2.630
24.8974 2.964
24.9140 2.679
24.9305 2.521
24.9471 2.882
24.9636 2.559
24.9802 2.740
24.9967 2.964
25.0133 2.636
25.0298 2.729
25.0463 3.019
25.0629 2.910
25.0794 2.921
25.0960 3.003
25.1125 3.129
25.1291 3.222
25.1456 3.293
25.1622 3.649
25.1787 3.671
25.1953 3.896
25.2118 4.153
25.2283 4.203
25.2449 4.444
25.2614 5.041
25.2780 5.858
25.2945 6.773
25.3111 7.781
25.3276 8.953
25.3442 10.986
25.3607 12.953
25.3773 16.778
25.3938 20.877
25.4103 26.077
25.4269 31.578
25.4434 35.025
25.4600 36.674
25.4765 34.449
25.4931 31.611
25.5096 27.255
25.5262 23.184
25.5427 18.729
25.5593 14.384
25.5758 10.581
25.5923 8.016
25.6089 6.225
25.6254 5.140
25.6420 4.301
25.6585 4.148
25.6751 3.759
25.6916 3.310
25.7082 3.216
25.7247 2.948
25.7413 3.008
25.7578 2.795
25.7743 2.959
25.7909 2.800
25.8074 2.641
25.8240 2.789
25.8405 2.444
25.8571 2.542
25.8736 2.499
25.8902 2.581
25.9067 2.575
25.9233 2.510
25.9398 2.395
25.9563 2.510
25.9729 2.318
25.9894 2.416
26.0060 2.449
26.0225 2.416
26.0391 2.373
26.0556 2.499
26.0722 2.148
26.0887 2.318
26.1053 2.219
26.1218 2.236
26.1383 2.285
26.1549 2.247
26.1714 2.044
26.1880 2.016
26.2045 2.230
26.2211 2.121
26.2376 2.318
26.2542 2.016
26.2707 2.258
26.2873 2.011
26.3038 2.126
26.3203 2.247
26.3369 2.016
26.3534 2.011
26.3700 2.093
26.3865 2.137
26.4031 2.323
26.4196 2.049
26.4362 2.093
26.4527 2.164
26.4693 2.038
26.4858 2.071
26.5023 2.088
26.5189 1.978
26.5354 2.241
26.5520 2.115
26.5685 2.000
26.5851 2.082
26.6016 1.929
26.6182 1.984
26.6347 2.126
26.6513 2.005
26.6678 2.093
26.6843 2.203
26.7009 1.912
26.7174 2.077
26.7340 2.071
26.7505 2.110
26.7671 1.929
26.7836 1.989
26.8002 2.022
26.8167 2.033
26.8333 2.000
26.8498 1.808
26.8663 2.022
26.8829 1.923
26.8994 2.077
26.9160 1.918
26.9325 1.940
26.9491 2.082
26.9656 2.121
26.9822 1.797
26.9987 1.825
27.0152 1.967
27.0318 1.984
27.0483 2.016
27.0649 1.912
27.0814 1.923
27.0980 2.011
27.1145 1.890
27.1311 1.830
27.1476 2.000
27.1642 2.055
27.1807 2.005
27.1972 1.984
27.2138 1.770
27.2303 2.038
27.2469 2.005
27.2634 1.885
27.2800 1.792
27.2965 1.940
27.3131 1.841
27.3296 2.044
27.3462 1.890
27.3627 1.836
27.3792 1.945
27.3958 1.748
27.4123 1.923
27.4289 1.808
27.4454 1.825
27.4620 2.005
27.4785 1.742
27.4951 2.088
27.5116 2.044
27.5282 1.699
27.5447 1.682
27.5612 1.726
27.5778 1.589
27.5943 1.797
27.6109 1.693
27.6274 1.616
27.6440 1.847
27.6605 1.836
27.6771 1.786
27.6936 1.792
27.7102 1.858
27.7267 1.721
27.7432 1.797
27.7598 1.825
27.7763 1.841
27.7929 1.819
27.8094 1.995
27.8260 1.704
27.8425 1.858
27.8591 1.759
27.8756 1.721
27.8922 1.825
27.9087 1.715
27.9252 1.764
27.9418 1.616
27.9583 1.825
27.9749 1.715
27.9914 1.616
28.0080 1.616
28.0245 1.753
28.0411 1.732
28.0576 1.600
28.0742 1.644
28.0907 1.496
28.1072 1.764
28.1238 1.595
28.1403 1.512
28.1569 1.682
28.1734 1.595
28.1900 1.677
28.2065 1.814
28.2231 1.425
28.2396 1.518
28.2562 1.633
28.2727 1.523
28.2892 1.710
28.3058 1.605
28.3223 1.573
28.3389 1.742
28.3554 1.644
28.3720 1.545
28.3885 1.474
28.4051 1.688
28.4216 1.496
28.4382 1.649
28.4547 1.595
28.4712 1.501
28.4878 1.468
28.5043 1.518
28.5209 1.622
28.5374 1.430
28.5540 1.534
28.5705 1.529
28.5871 1.534
28.6036 1.414
28.6202 1.633
28.6367 1.529
28.6532 1.638
28.6698 1.551
28.6863 1.578
28.7029 1.408
28.7194 1.523
28.7360 1.485
28.7525 1.545
28.7691 1.414
28.7856 1.501
28.8022 1.436
28.8187 1.534
28.8352 1.534
28.8518 1.633
28.8683 1.595
28.8849 1.589
28.9014 1.479
28.9180 1.436
28.9345 1.578
28.9511 1.501
28.9676 1.605
28.9842 1.507
29.0007 1.507
29.0172 1.518
29.0338 1.441
29.0503 1.441
29.0669 1.638
29.0834 1.326
29.1000 1.304
29.1165 1.348
29.1331 1.529
29.1496 1.463
29.1662 1.496
29.1827 1.458
29.1992 1.364
29.2158 1.436
29.2323 1.414
29.2489 1.458
29.2654 1.671
29.2820 1.370
29.2985 1.425
29.3151 1.332
29.3316 1.463
29.3482 1.332
29.3647 1.436
29.3812 1.496
29.3978 1.545
29.4143 1.271
29.4309 1.545
29.4474 1.545
29.4640 1.436
29.4805 1.277
29.4971 1.364
29.5136 1.430
29.5302 1.386
29.5467 1.441
29.5632 1.392
29.5798 1.485
29.5963 1.501
29.6129 1.238
29.6294 1.299
29.6460 1.611
29.6625 1.288
29.6791 1.447
29.6956 1.288
29.7121 1.162
29.7287 1.468
29.7452 1.216
29.7618 1.419
29.7783 1.397
29.7949 1.260
29.8114 1.337
29.8280 1.299
29.8445 1.299
29.8611 1.584
29.8776 1.485
29.8941 1.244
29.9107 1.299
29.9272 1.321
29.9438 1.288
29.9603 1.255
29.9769 1.315
29.9934 1.205
30.0100 1.452
30.0265 1.447
30.0431 1.386
30.0596 1.414
30.0761 1.244
30.0927 1.430
30.1092 1.271
30.1258 1.419
30.1423 1.326
30.1589 1.255
30.1754 1.178
30.1920 1.370
30.2085 1.288
30.2251 1.386
30.2416 1.397
30.2581 1.299
30.2747 1.315
30.2912 1.299
30.3078 1.293
30.3243 1.386
30.3409 1.167
30.3574 1.375
30.3740 1.326
30.3905 1.282
30.4071 1.304
30.4236 1.227
30.4401 1.195
30.4567 1.282
30.4732 1.315
30.4898 1.277
30.5063 1.315
30.5229 1.282
30.5394 1.310
30.5560 1.359
30.5725 1.310
30.5891 1.364
30.6056 1.156
30.6221 1.282
30.6387 1.282
30.6552 1.222
30.6718 1.151
30.6883 1.321
30.7049 1.370
30.7214 1.282
30.7380 1.337
30.7545 1.145
30.7711 1.162
30.7876 1.337
30.8041 1.282
30.8207 1.200
30.8372 1.162
30.8538 1.195
30.8703 1.134
30.8869 1.299
30.9034 1.233
30.9200 1.079
30.9365 1.025
30.9531 1.101
30.9696 1.184
30.9861 1.211
31.0027 1.266
31.0192 1.184
31.0358 1.337
31.0523 1.315
31.0689 1.173
31.0854 1.063
31.1020 1.162
31.1185 1.145
31.1351 1.260
31.1516 1.167
31.1681 1.178
31.1847 1.332
31.2012 1.315
31.2178 1.211
31.2343 1.310
31.2509 1.096
31.2674 1.101
31.2840 1.315
31.3005 1.266
31.3171 1.211
31.3336 1.244
31.3501 1.107
31.3667 1.074
31.3832 1.074
31.3998 1.118
31.4163 1.310
31.4329 1.227
31.4494 1.315
31.4660 1.260
31.4825 1.255
31.4991 1.244
31.5156 1.310
31.5321 1.162
31.5487 1.156
31.5652 1.244
31.5818 1.370
31.5983 1.003
31.6149 1.101
31.6314 1.348
31.6480 1.090
31.6645 1.118
31.6811 1.112
31.6976 1.244
31.7141 1.134
31.7307 1.195
31.7472 1.178
31.7638 1.134
31.7803 1.162
31.7969 1.173
31.8134 1.321
31.8300 1.058
31.8465 1.063
31.8631 1.271
31.8796 1.195
31.8961 1.140
31.9127 1.101
31.9292 1.101
31.9458 0.997
31.9623 1.041
31.9789 0.992
31.9954 0.992
32.0120 1.118
32.0285 1.195
32.0451 1.140
32.0616 1.085
32.0781 1.123
32.0947 1.074
32.1112 1.096
32.1278 1.058
32.1443 1.260
32.1609 1.047
32.1774 0.932
32.1940 1.162
32.2105 1.112
32.2271 1.107
32.2436 0.948
32.2601 1.074
32.2767 1.195
32.2932 1.025
32.3098 1.134
32.3263 1.014
32.3429 0.959
32.3594 1.189
32.3760 1.140
32.3925 1.118
32.4091 1.249
32.4256 1.079
32.4421 0.975
32.4587 1.178
32.4752 1.063
32.4918 1.008
32.5083 1.014
32.5249 1.156
32.5414 1.074
32.5580 1.096
32.5745 0.992
32.5910 1.118
32.6076 1.162
32.6241 1.036
32.6407 1.156
32.6572 1.156
32.6738 1.140
32.6903 1.090
32.7069 1.167
32.7234 1.052
32.7400 1.145
32.7565 1.101
32.7730 1.058
32.7896 1.090
32.8061 1.145
32.8227 1.047
32.8392 1.068
32.8558 0.997
32.8723 1.079
32.8889 1.140
32.9054 1.052
32.9220 1.079
32.9385 1.068
32.9550 0.992
32.9716 1.047
32.9881 1.052
33.0047 1.118
33.0212 1.151
33.0378 1.085
33.0543 1.156
33.0709 1.134
33.0874 1.140
33.1040 1.140
33.1205 1.036
33.1370 1.074
33.1536 1.036
33.1701 0.948
33.1867 1.079
33.2032 1.052
33.2198 0.970
33.2363 1.068
33.2529 0.915
33.2694 1.145
33.2860 0.953
33.3025 1.162
33.3190 0.948
33.3356 1.118
33.3521 1.074
33.3687 1.008
33.3852 1.041
33.4018 1.003
33.4183 1.030
33.4349 1.140
33.4514 1.030
33.4680 1.030
33.4845 1.036
33.5010 1.112
33.5176 1.118
33.5341 1.140
33.5507 1.041
33.5672 1.211
33.5838 1.173
33.6003 1.118
33.6169 1.030
33.6334 1.211
33.6500 1.173
33.6665 1.216
33.6830 1.249
33.6996 1.195
33.7161 1.014
33.7327 1.266
33.7492 1.282
33.7658 1.304
33.7823 1.255
33.7989 1.397
33.8154 1.425
33.8320 1.233
33.8485 1.348
33.8650 1.282
33.8816 1.211
33.8981 1.452
33.9147 1.238
33.9312 1.271
33.9478 1.255
33.9643 1.227
33.9809 1.518
33.9974 1.255
34.0140 1.364
34.0305 1.310
34.0470 1.282
34.0636 1.458
34.0801 1.304
34.0967 1.178
34.1132 1.359
34.1298 1.474
34.1463 1.348
34.1629 1.414
34.1794 1.178
34.1960 1.271
34.2125 1.299
34.2290 1.288
34.2456 1.540
34.2621 1.441
34.2787 1.507
34.2952 1.266
34.3118 1.474
34.3283 1.430
34.3449 1.260
34.3614 1.551
34.3780 1.534
34.3945 1.616
34.4110 1.425
34.4276 1.693
34.4441 1.704
34.4607 1.556
34.4772 1.759
34.4938 1.797
34.5103 1.710
34.5269 1.907
34.5434 1.748
34.5600 1.775
34.5765 2.093
34.5930 1.973
34.6096 2.493
34.6261 2.630
34.6427 2.619
34.6592 3.129
34.6758 3.200
34.6923 3.764
34.7089 3.951
34.7254 4.504
34.7420 5.052
34.7585 5.759
34.7750 6.564
34.7916 8.088
34.8081 9.151
34.8247 11.118
34.8412 13.540
34.8578 16.679
34.8743 19.847
34.8909 24.679
34.9074 31.425
34.9240 37.529
34.9405 44.427
34.9570 48.121
34.9736 49.770
34.9901 46.833
35.0067 41.079
35.0232 35.611
35.0398 32.049
35.0563 29.118
35.0729 24.307
35.0894 19.792
35.1060 14.290
35.1225 10.482
35.1390 7.386
35.1556 5.386
35.1721 4.384
35.1887 3.879
35.2052 3.260
35.2218 2.948
35.2383 2.603
35.2549 2.449
35.2714 2.214
35.2879 2.241
35.3045 2.088
35.3210 1.836
35.3376 1.715
35.3541 1.808
35.3707 1.633
35.3872 1.693
35.4038 1.852
35.4203 1.523
35.4369 1.600
35.4534 1.562
35.4699 1.616
35.4865 1.375
35.5030 1.573
35.5196 1.403
35.5361 1.238
35.5527 1.392
35.5692 1.414
35.5858 1.419
35.6023 1.299
35.6189 1.359
35.6354 1.381
35.6519 1.436
35.6685 1.162
35.6850 1.452
35.7016 1.337
35.7181 1.205
35.7347 1.156
35.7512 1.315
35.7678 1.348
35.7843 1.315
35.8009 1.233
35.8174 1.304
35.8339 1.249
35.8505 1.227
35.8670 1.249
35.8836 1.310
35.9001 1.145
35.9167 1.058
35.9332 1.178
35.9498 1.178
35.9663 1.036
35.9829 1.195
35.9994 1.079
36.0159 1.310
36.0325 1.145
36.0490 1.025
36.0656 1.025
36.0821 1.019
36.0987 1.167
36.1152 1.271
36.1318 1.211
36.1483 1.036
36.1649 0.981
36.1814 1.052
36.1979 1.145
36.2145 1.052
36.2310 1.134
36.2476 1.211
36.2641 1.200
36.2807 1.173
36.2972 1.326
36.3138 1.096
36.3303 1.123
36.3469 1.118
36.3634 1.118
36.3799 1.129
36.3965 1.019
36.4130 1.156
36.4296 1.184
36.4461 1.107
36.4627 1.233
36.4792 1.129
36.4958 1.227
36.5123 1.101
36.5289 1.162
36.5454 1.211
36.5619 1.244
36.5785 1.085
36.5950 1.216
36.6116 1.047
36.6281 1.178
36.6447 1.244
36.6612 1.162
36.6778 1.178
36.6943 1.112
36.7109 1.205
36.7274 1.145
36.7439 1.156
36.7605 1.167
36.7770 1.315
36.7936 1.315
36.8101 1.173
36.8267 1.085
36.8432 1.063
36.8598 1.227
36.8763 1.227
36.8929 1.134
36.9094 1.058
36.9259 1.129
36.9425 1.337
36.9590 1.337
36.9756 1.156
36.9921 1.337
37.0087 1.397
37.0252 1.337
37.0418 1.238
37.0583 1.085
37.0749 1.321
37.0914 1.244
37.1079 1.364
37.1245 1.233
37.1410 1.244
37.1576 1.332
37.1741 1.507
37.1907 1.474
37.2072 1.447
37.2238 1.419
37.2403 1.759
37.2569 1.830
37.2734 1.858
37.2899 1.808
37.3065 1.852
37.3230 2.060
37.3396 2.252
37.3561 2.696
37.3727 2.882
37.3892 3.200
37.4058 3.737
37.4223 4.170
37.4389 4.789
37.4554 5.534
37.4719 6.219
37.4885 7.666
37.5050 9.036
37.5216 11.573
37.5381 13.764
37.5547 16.016
37.5712 18.822
37.5878 20.121
37.6043 19.353
37.6209 16.975
37.6374 15.019
37.6539 13.244
37.6705 12.296
37.6870 11.447
37.7036 10.099
37.7201 7.967
37.7367 5.847
37.7532 4.679
37.7698 3.381
37.7863 2.888
37.8029 2.384
37.8194 2.088
37.8359 1.940
37.8525 1.764
37.8690 1.458
37.8856 1.403
37.9021 1.584
37.9187 1.408
37.9352 1.364
37.9518 1.430
37.9683 1.266
37.9848 1.375
38.0014 1.249
38.0179 1.315
38.0345 1.162
38.0510 1.047
38.0676 1.227
38.0841 1.145
38.1007 1.184
38.1172 1.118
38.1338 1.036
38.1503 1.068
38.1668 1.123
38.1834 1.200
38.1999 1.085
38.2165 1.068
38.2330 1.030
38.2496 1.090
38.2661 1.162
38.2827 1.068
38.2992 1.151
38.3158 0.953
38.3323 1.140
38.3488 1.090
38.3654 0.986
38.3819 0.997
38.3985 1.079
38.4150 1.101
38.4316 1.173
38.4481 0.904
38.4647 1.014
38.4812 0.975
38.4978 1.030
38.5143 1.074
38.5308 1.063
38.5474 0.975
38.5639 1.112
38.5805 0.997
38.5970 1.085
38.6136 0.893
38.6301 1.096
38.6467 0.975
38.6632 1.167
38.6798 0.937
38.6963 1.140
38.7128 1.096
38.7294 0.970
38.7459 1.107
38.7625 1.058
38.7790 0.975
38.7956 1.030
38.8121 1.041
38.8287 0.921
38.8452 0.953
38.8618 0.997
38.8783 0.964
38.8948 0.992
38.9114 1.058
38.9279 1.058
38.9445 0.866
38.9610 1.041
38.9776 1.074
38.9941 0.893
39.0107 1.003
39.0272 0.986
39.0438 0.970
39.0603 0.882
39.0768 0.942
39.0934 1.008
39.1099 0.953
39.1265 0.849
39.1430 0.893
39.1596 0.888
39.1761 0.932
39.1927 0.986
39.2092 0.915
39.2258 0.932
39.2423 0.910
39.2588 0.921
39.2754 1.090
39.2919 0.855
39.3085 0.915
39.3250 0.921
39.3416 0.899
39.3581 1.036
39.3747 0.921
39.3912 1.052
39.4078 0.948
39.4243 0.844
39.4408 0.899
39.4574 0.910
39.4739 0.921
39.4905 0.953
39.5070 1.003
39.5236 0.926
39.5401 0.822
39.5567 0.937
39.5732 0.860
39.5898 0.948
39.6063 0.866
39.6228 0.827
39.6394 0.932
39.6559 1.019
39.6725 0.942
39.6890 0.910
39.7056 0.964
39.7221 0.860
39.7387 0.827
39.7552 0.833
39.7718 0.970
39.7883 0.948
39.8048 0.860
39.8214 0.866
39.8379 0.745
39.8545 0.849
39.8710 0.921
39.8876 0.937
39.9041 1.036
39.9207 0.893
39.9372 0.855
39.9538 0.921
39.9703 0.795
39.9868 0.855
40.0034 0.855
40.0199 0.981
40.0365 0.877
40.0530 0.833
40.0696 0.948
40.0861 0.827
40.1027 0.904
40.1192 0.816
40.1358 0.789
40.1523 0.986
40.1688 0.800
40.1854 0.877
40.2019 0.948
40.2185 0.816
40.2350 0.986
40.2516 0.871
40.2681 0.877
40.2847 0.921
40.3012 0.932
40.3178 0.860
40.3343 0.816
40.3508 0.855
40.3674 0.816
40.3839 0.833
40.4005 0.893
40.4170 0.849
40.4336 0.921
40.4501 0.800
40.4667 0.937
40.4832 0.937
40.4998 0.871
40.5163 0.844
40.5328 0.882
40.5494 0.877
40.5659 0.800
40.5825 0.838
40.5990 0.899
40.6156 0.844
40.6321 0.849
40.6487 0.784
40.6652 0.877
40.6818 0.789
40.6983 1.014
40.7148 0.899
40.7314 0.860
40.7479 0.751
40.7645 0.745
40.7810 0.784
40.7976 1.003
40.8141 0.992
40.8307 0.866
40.8472 0.762
40.8637 0.921
40.8803 0.860
40.8968 1.008
40.9134 0.871
40.9299 0.827
40.9465 0.816
40.9630 0.899
40.9796 0.855
40.9961 0.762
41.0127 0.899
41.0292 0.712
41.0457 0.970
41.0623 0.866
41.0788 0.926
41.0954 0.827
41.1119 0.964
41.1285 0.877
41.1450 0.871
41.1616 0.910
41.1781 0.888
41.1947 0.992
41.2112 0.871
41.2277 0.986
41.2443 0.871
41.2608 0.795
41.2774 1.014
41.2939 0.926
41.3105 1.025
41.3270 1.101
41.3436 0.844
41.3601 1.052
41.3767 1.162
41.3932 1.173
41.4097 1.304
41.4263 1.386
41.4428 1.496
41.4594 1.211
41.4759 1.145
41.4925 1.189
41.5090 1.375
41.5256 1.222
41.5421 1.321
41.5587 1.227
41.5752 1.162
41.5917 1.025
41.6083 1.014
41.6248 0.904
41.6414 0.953
41.6579 0.975
41.6745 0.981
41.6910 1.063
41.7076 1.052
41.7241 1.003
41.7407 1.090
41.7572 0.986
41.7737 0.888
41.7903 0.942
41.8068 0.942
41.8234 1.178
41.8399 0.959
41.8565 0.942
41.8730 1.123
41.8896 1.107
41.9061 1.047
41.9227 0.910
41.9392 1.058
41.9557 0.992
41.9723 1.058
41.9888 0.860
42.0054 1.036
42.0219 1.025
42.0385 1.107
42.0550 1.047
42.0716 1.211
42.0881 0.975
42.1047 1.184
42.1212 1.222
42.1377 1.003
42.1543 1.036
42.1708 1.107
42.1874 1.019
42.2039 1.063
42.2205 0.986
42.2370 1.178
42.2536 1.118
42.2701 0.959
42.2867 1.129
42.3032 1.107
42.3197 1.063
42.3363 1.173
42.3528 1.266
42.3694 1.266
42.3859 1.156
42.4025 1.145
42.4190 1.260
42.4356 1.195
42.4521 1.255
42.4687 1.167
42.4852 1.211
42.5017 1.255
42.5183 1.326
42.5348 1.162
42.5514 1.430
42.5679 1.436
42.5845 1.403
42.6010 1.699
42.6176 1.364
42.6341 1.452
42.6507 1.490
42.6672 1.688
42.6837 1.710
42.7003 1.995
42.7168 1.885
42.7334 2.329
42.7499 2.351
42.7665 2.515
42.7830 2.515
42.7996 2.838
42.8161 3.353
42.8327 3.238
42.8492 3.786
42.8657 4.340
42.8823 5.189
42.8988 5.874
42.9154 6.274
42.9319 7.589
42.9485 8.603
42.9650 10.132
42.9816 11.458
42.9981 14.400
43.0147 16.992
43.0312 20.575
43.0477 25.244
43.0643 30.444
43.0808 36.734
43.0974 43.189
43.1139 48.773
43.1305 48.482
43.1470 45.633
43.1636 39.704
43.1801 34.104
43.1967 29.918
43.2132 28.186
43.2297 27.468
43.2463 24.510
43.2628 21.337
43.2794 16.422
43.2959 12.214
43.3125 8.888
43.3290 6.427
43.3456 5.277
43.3621 3.956
43.3787 3.430
43.3952 3.090
43.4117 2.603
43.4283 2.614
43.4448 2.312
43.4614 2.268
43.4779 1.879
43.4945 1.732
43.5110 1.545
43.5276 1.551
43.5441 1.496
43.5606 1.627
43.5772 1.627
43.5937 1.375
43.6103 1.463
43.6268 1.348
43.6434 1.304
43.6599 1.342
43.6765 1.227
43.6930 1.271
43.7096 1.101
43.7261 1.074
43.7426 1.304
43.7592 1.211
43.7757 1.167
43.7923 1.107
43.8088 1.184
43.8254 1.101
43.8419 1.101
43.8585 1.096
43.8750 1.129
43.8916 1.019
43.9081 1.047
43.9246 1.096
43.9412 1.052
43.9577 1.014
43.9743 1.003
43.9908 1.068
44.0074 0.997
44.0239 1.063
44.0405 1.085
44.0570 0.959
44.0736 1.041
44.0901 0.970
44.1066 0.942
44.1232 1.173
44.1397 0.871
44.1563 0.986
44.1728 0.893
44.1894 0.915
44.2059 0.871
44.2225 0.959
44.2390 1.047
44.2556 0.871
44.2721 0.953
44.2886 0.921
44.3052 0.948
44.3217 0.849
44.3383 0.921
44.3548 0.959
44.3714 0.964
44.3879 0.992
44.4045 1.041
44.4210 0.937
44.4376 1.074
44.4541 0.795
44.4706 0.921
44.4872 0.827
44.5037 0.899
44.5203 0.948
44.5368 0.981
44.5534 0.899
44.5699 0.811
44.5865 0.860
44.6030 0.899
44.6196 0.767
44.6361 0.833
44.6526 0.844
44.6692 0.882
44.6857 0.800
44.7023 0.816
44.7188 0.877
44.7354 0.986
44.7519 0.893
44.7685 0.811
44.7850 0.833
44.8016 0.882
44.8181 0.844
44.8346 0.932
44.8512 0.844
44.8677 0.849
44.8843 0.871
44.9008 0.811
44.9174 0.866
44.9339 0.822
44.9505 0.981
44.9670 0.860
44.9836 0.844
45.0001 0.904
45.0166 0.871
45.0332 0.740
45.0497 0.855
45.0663 0.773
45.0828 0.800
45.0994 0.932
45.1159 0.942
45.1325 0.685
45.1490 0.805
45.1656 0.948
45.1821 0.959
45.1986 0.827
45.2152 0.910
45.2317 0.855
45.2483 0.860
45.2648 0.871
45.2814 0.910
45.2979 0.740
45.3145 0.756
45.3310 0.827
45.3476 0.844
45.3641 0.822
45.3806 0.882
45.3972 0.975
45.4137 0.926
45.4303 0.877
45.4468 0.888
45.4634 0.778
45.4799 0.816
45.4965 0.816
45.5130 0.910
45.5296 0.784
45.5461 0.784
45.5626 0.849
45.5792 0.833
45.5957 0.833
45.6123 0.871
45.6288 0.773
45.6454 0.822
45.6619 0.959
45.6785 0.789
45.6950 0.866
45.7116 0.860
45.7281 0.921
45.7446 0.838
45.7612 0.948
45.7777 0.964
45.7943 0.953
45.8108 0.860
45.8274 0.937
45.8439 1.019
45.8605 0.986
45.8770 1.227
45.8936 1.342
45.9101 1.342
45.9266 1.288
45.9432 1.381
45.9597 1.304
45.9763 1.123
45.9928 1.205
46.0094 1.216
46.0259 1.134
46.0425 1.101
46.0590 1.112
46.0756 0.975
46.0921 1.003
46.1086 0.888
46.1252 0.822
46.1417 0.849
46.1583 0.910
46.1748 0.833
46.1914 0.805
46.2079 0.734
46.2245 0.707
46.2410 0.597
46.2575 0.838
46.2741 0.827
46.2906 0.740
46.3072 0.745
46.3237 0.740
46.3403 0.855
46.3568 0.811
46.3734 0.734
46.3899 0.800
46.4065 0.784
46.4230 0.685
46.4395 0.767
46.4561 0.827
46.4726 0.822
46.4892 0.762
46.5057 0.690
46.5223 0.592
46.5388 0.636
46.5554 0.723
46.5719 0.619
46.5885 0.679
46.6050 0.723
46.6215 0.756
46.6381 0.663
46.6546 0.668
46.6712 0.800
46.6877 0.745
46.7043 0.789
46.7208 0.784
46.7374 0.811
46.7539 0.778
46.7705 0.658
46.7870 0.855
46.8035 0.822
46.8201 0.718
46.8366 0.844
46.8532 0.696
46.8697 0.762
46.8863 0.827
46.9028 0.833
46.9194 0.910
46.9359 0.729
46.9525 0.871
46.9690 0.827
46.9855 0.784
47.0021 0.701
47.0186 0.751
47.0352 0.696
47.0517 0.674
47.0683 0.663
47.0848 0.745
47.1014 0.795
47.1179 0.740
47.1345 0.789
47.1510 0.619
47.1675 0.652
47.1841 0.625
47.2006 0.723
47.2172 0.773
47.2337 0.658
47.2503 0.641
47.2668 0.685
47.2834 0.679
47.2999 0.652
47.3165 0.778
47.3330 0.696
47.3495 0.822
47.3661 0.723
47.3826 0.816
47.3992 0.685
47.4157 0.707
47.4323 0.636
47.4488 0.756
47.4654 0.789
47.4819 0.690
47.4985 0.696
47.5150 0.822
47.5315 0.663
47.5481 0.756
47.5646 0.630
47.5812 0.718
47.5977 0.877
47.6143 0.756
47.6308 0.674
47.6474 0.795
47.6639 0.767
47.6805 0.652
47.6970 0.751
47.7135 0.745
47.7301 0.816
47.7466 0.756
47.7632 0.679
47.7797 0.696
47.7963 0.778
47.8128 0.778
47.8294 0.679
47.8459 0.762
47.8625 0.712
47.8790 0.674
47.8955 0.696
47.9121 0.658
47.9286 0.701
47.9452 0.778
47.9617 0.729
47.9783 0.811
47.9948 0.652
48.0114 0.773
48.0279 0.696
48.0445 0.668
48.0610 0.745
48.0775 0.740
48.0941 0.712
48.1106 0.696
48.1272 0.707
48.1437 0.685
48.1603 0.734
48.1768 0.619
48.1934 0.723
48.2099 0.592
48.2265 0.636
48.2430 0.712
48.2595 0.652
48.2761 0.701
48.2926 0.641
48.3092 0.701
48.3257 0.625
48.3423 0.690
48.3588 0.690
48.3754 0.685
48.3919 0.784
48.4085 0.718
48.4250 0.564
48.4415 0.630
48.4581 0.668
48.4746 0.553
48.4912 0.668
48.5077 0.718
48.5243 0.663
48.5408 0.685
48.5574 0.778
48.5739 0.707
48.5905 0.542
48.6070 0.740
48.6235 0.597
48.6401 0.586
48.6566 0.712
48.6732 0.745
48.6897 0.679
48.7063 0.729
48.7228 0.679
48.7394 0.833
48.7559 0.597
48.7725 0.636
48.7890 0.636
48.8055 0.658
48.8221 0.614
48.8386 0.745
48.8552 0.690
48.8717 0.718
48.8883 0.515
48.9048 0.674
48.9214 0.740
48.9379 0.663
48.9545 0.696
48.9710 0.701
48.9875 0.690
49.0041 0.745
49.0206 0.542
49.0372 0.756
49.0537 0.690
49.0703 0.586
49.0868 0.696
49.1034 0.608
49.1199 0.718
49.1364 0.745
49.1530 0.679
49.1695 0.729
49.1861 0.614
49.2026 0.658
49.2192 0.658
49.2357 0.630
49.2523 0.614
49.2688 0.619
49.2854 0.625
49.3019 0.734
49.3184 0.652
49.3350 0.619
49.3515 0.636
49.3681 0.707
49.3846 0.679
49.4012 0.696
49.4177 0.712
49.4343 0.608
49.4508 0.608
49.4674 0.636
49.4839 0.685
49.5004 0.636
49.5170 0.652
49.5335 0.663
49.5501 0.751
49.5666 0.614
49.5832 0.608
49.5997 0.718
49.6163 0.674
49.6328 0.690
49.6494 0.652
49.6659 0.668
49.6824 0.674
49.6990 0.647
49.7155 0.685
49.7321 0.603
49.7486 0.712
49.7652 0.674
49.7817 0.625
49.7983 0.630
49.8148 0.751
49.8314 0.696
49.8479 0.625
49.8644 0.762
49.8810 0.712
49.8975 0.575
49.9141 0.581
49.9306 0.592
49.9472 0.641
49.9637 0.652
49.9803 0.641
49.9968 0.789
50.0134 0.663
50.0299 0.647
50.0464 0.696
50.0630 0.707
50.0795 0.663
50.0961 0.712
50.1126 0.690
50.1292 0.740
50.1457 0.707
50.1623 0.756
50.1788 0.581
50.1954 0.674
50.2119 0.597
50.2284 0.575
50.2450 0.636
50.2615 0.559
50.2781 0.614
50.2946 0.668
50.3112 0.641
50.3277 0.789
50.3443 0.723
50.3608 0.789
50.3774 0.597
50.3939 0.849
50.4104 0.740
50.4270 0.625
50.4435 0.718
50.4601 0.652
50.4766 0.849
50.4932 0.795
50.5097 0.614
50.5263 0.740
50.5428 0.597
50.5594 0.674
50.5759 0.690
50.5924 0.740
50.6090 0.756
50.6255 0.608
50.6421 0.767
50.6586 0.734
50.6752 0.707
50.6917 0.696
50.7083 0.636
50.7248 0.805
50.7414 0.745
50.7579 0.745
50.7744 0.636
50.7910 0.630
50.8075 0.679
50.8241 0.685
50.8406 0.740
50.8572 0.751
50.8737 0.707
50.8903 0.767
50.9068 0.696
50.9234 0.723
50.9399 0.740
50.9564 0.751
50.9730 0.740
50.9895 0.833
51.0061 0.674
51.0226 0.707
51.0392 0.784
51.0557 0.778
51.0723 0.762
51.0888 0.679
51.1054 0.751
51.1219 0.718
51.1384 0.729
51.1550 0.855
51.1715 0.811
51.1881 0.877
51.2046 0.795
51.2212 0.723
51.2377 0.690
51.2543 0.751
51.2708 0.767
51.2874 0.778
51.3039 0.773
51.3204 0.849
51.3370 0.838
51.3535 0.762
51.3701 0.888
51.3866 0.827
51.4032 0.668
51.4197 0.800
51.4363 0.756
51.4528 0.822
51.4694 0.899
51.4859 0.827
51.5024 0.751
51.5190 0.789
51.5355 0.899
51.5521 0.756
51.5686 0.734
51.5852 0.795
51.6017 0.866
51.6183 0.915
51.6348 0.800
51.6514 0.838
51.6679 1.090
51.6844 0.899
51.7010 0.970
51.7175 0.888
51.7341 0.964
51.7506 0.877
51.7672 1.008
51.7837 0.975
51.8003 0.932
51.8168 1.014
51.8333 1.178
51.8499 1.326
51.8664 1.310
51.8830 1.474
51.8995 1.441
51.9161 1.627
51.9326 1.726
51.9492 1.775
51.9657 2.104
51.9823 2.329
51.9988 2.384
52.0153 2.959
52.0319 3.063
52.0484 3.227
52.0650 3.753
52.0815 4.592
52.0981 5.134
52.1146 5.945
52.1312 7.063
52.1477 8.263
52.1643 9.501
52.1808 11.885
52.1973 13.430
52.2139 15.951
52.2304 17.529
52.2470 20.307
52.2635 20.685
52.2801 19.518
52.2966 16.871
52.3132 14.175
52.3297 11.896
52.3463 11.282
52.3628 10.926
52.3793 10.658
52.3959 10.093
52.4124 10.274
52.4290 8.466
52.4455 6.811
52.4621 5.096
52.4786 4.033
52.4952 3.068
52.5117 2.318
52.5283 2.060
52.5448 1.885
52.5613 1.710
52.5779 1.458
52.5944 1.310
52.6110 1.326
52.6275 1.277
52.6441 1.112
52.6606 1.167
52.6772 1.085
52.6937 1.014
52.7103 1.047
52.7268 0.942
52.7433 0.871
52.7599 0.816
52.7764 0.888
52.7930 0.893
52.8095 0.932
52.8261 0.866
52.8426 0.811
52.8592 0.871
52.8757 0.789
52.8923 0.773
52.9088 0.778
52.9253 0.833
52.9419 0.784
52.9584 0.740
52.9750 0.756
52.9915 0.740
53.0081 0.795
53.0246 0.696
53.0412 0.784
53.0577 0.740
53.0743 0.652
53.0908 0.778
53.1073 0.668
53.1239 0.882
53.1404 0.592
53.1570 0.778
53.1735 0.663
53.1901 0.756
53.2066 0.619
53.2232 0.663
53.2397 0.674
53.2563 0.745
53.2728 0.751
53.2893 0.679
53.3059 0.685
53.3224 0.570
53.3390 0.652
53.3555 0.614
53.3721 0.751
53.3886 0.663
53.4052 0.718
53.4217 0.636
53.4383 0.608
53.4548 0.663
53.4713 0.641
53.4879 0.674
53.5044 0.838
53.5210 0.668
53.5375 0.723
53.5541 0.575
53.5706 0.740
53.5872 0.619
53.6037 0.816
53.6203 0.756
53.6368 0.658
53.6533 0.729
53.6699 0.712
53.6864 0.701
53.7030 0.674
53.7195 0.614
53.7361 0.647
53.7526 0.636
53.7692 0.647
53.7857 0.630
53.8023 0.679
53.8188 0.658
53.8353 0.696
53.8519 0.729
53.8684 0.674
53.8850 0.690
53.9015 0.690
53.9181 0.707
53.9346 0.603
53.9512 0.663
53.9677 0.658
53.9843 0.542
54.0008 0.641
54.0173 0.679
54.0339 0.542
54.0504 0.663
54.0670 0.762
54.0835 0.663
54.1001 0.685
54.1166 0.608
54.1332 0.619
54.1497 0.603
54.1663 0.564
54.1828 0.581
54.1993 0.723
54.2159 0.690
54.2324 0.729
54.2490 0.762
54.2655 0.685
54.2821 0.723
54.2986 0.581
54.3152 0.592
54.3317 0.614
54.3483 0.614
54.3648 0.608
54.3813 0.630
54.3979 0.685
54.4144 0.597
54.4310 0.674
54.4475 0.625
54.4641 0.701
54.4806 0.707
54.4972 0.603
54.5137 0.564
54.5302 0.679
54.5468 0.647
54.5633 0.641
54.5799 0.570
54.5964 0.679
54.6130 0.564
54.6295 0.575
54.6461 0.608
54.6626 0.636
54.6792 0.570
54.6957 0.581
54.7122 0.690
54.7288 0.663
54.7453 0.586
54.7619 0.641
54.7784 0.668
54.7950 0.636
54.8115 0.619
54.8281 0.542
54.8446 0.701
54.8612 0.592
54.8777 0.668
54.8942 0.663
54.9108 0.723
54.9273 0.712
54.9439 0.740
54.9604 0.570
54.9770 0.707
54.9935 0.630
55.0101 0.751
55.0266 0.625
55.0432 0.729
55.0597 0.789
55.0762 0.762
55.0928 0.740
55.1093 0.564
55.1259 0.762
55.1424 0.778
55.1590 0.773
55.1755 0.784
55.1921 0.630
55.2086 0.844
55.2252 0.756
55.2417 0.685
55.2582 0.805
55.2748 0.707
55.2913 0.674
55.3079 0.800
55.3244 0.811
55.3410 0.740
55.3575 0.696
55.3741 0.778
55.3906 0.679
55.4072 0.740
55.4237 0.745
55.4402 0.871
55.4568 0.734
55.4733 0.800
55.4899 0.877
55.5064 0.756
55.5230 0.767
55.5395 0.707
55.5561 0.767
55.5726 0.773
55.5892 0.822
55.6057 0.663
55.6222 0.795
55.6388 0.784
55.6553 0.707
55.6719 0.674
55.6884 0.734
55.7050 0.707
55.7215 0.789
55.7381 0.822
55.7546 0.986
55.7712 0.904
55.7877 0.921
55.8042 0.811
55.8208 0.816
55.8373 0.685
55.8539 0.674
55.8704 0.762
55.8870 0.745
55.9035 0.712
55.9201 0.751
55.9366 0.778
55.9532 0.729
55.9697 0.778
55.9862 0.822
56.0028 0.668
56.0193 0.800
56.0359 0.756
56.0524 0.942
56.0690 0.932
56.0855 0.910
56.1021 0.816
56.1186 0.899
56.1352 0.915
56.1517 0.811
56.1682 0.652
56.1848 0.866
56.2013 0.822
56.2179 0.921
56.2344 0.937
56.2510 0.784
56.2675 0.871
56.2841 0.866
56.3006 0.822
56.3172 0.844
56.3337 0.860
56.3502 0.866
56.3668 0.893
56.3833 0.849
56.3999 0.910
56.4164 0.910
56.4330 0.970
56.4495 0.921
56.4661 0.849
56.4826 0.975
56.4992 1.085
56.5157 1.008
56.5322 1.145
56.5488 1.019
56.5653 1.123
56.5819 1.156
56.5984 1.233
56.6150 1.140
56.6315 1.162
56.6481 1.145
56.6646 1.260
56.6812 1.397
56.6977 1.562
56.7142 1.518
56.7308 1.638
56.7473 1.907
56.7639 1.962
56.7804 2.060
56.7970 2.405
56.8135 2.384
56.8301 2.696
56.8466 3.238
56.8632 3.353
56.8797 3.567
56.8962 4.279
56.9128 4.762
56.9293 5.512
56.9459 5.490
56.9624 6.805
56.9790 7.266
56.9955 8.663
57.0121 10.170
57.0286 12.307
57.0452 14.460
57.0617 16.795
57.0782 20.460
57.0948 23.825
57.1113 27.386
57.1279 32.663
57.1444 34.849
57.1610 38.044
57.1775 35.721
57.1941 33.255
57.2106 28.811
57.2272 23.112
57.2437 20.712
57.2602 18.937
57.2768 18.745
57.2933 19.638
57.3099 19.967
57.3264 19.145
57.3430 16.685
57.3595 13.797
57.3761 10.493
57.3926 7.616
57.4091 5.742
57.4257 4.515
57.4422 3.512
57.4588 3.123
57.4753 2.844
57.4919 2.510
57.5084 2.137
57.5250 1.978
57.5415 1.879
57.5581 1.551
57.5746 1.578
57.5911 1.644
57.6077 1.299
57.6242 1.507
57.6408 1.348
57.6573 1.326
57.6739 1.178
57.6904 1.134
57.7070 1.134
57.7235 1.140
57.7401 0.997
57.7566 1.052
57.7731 1.019
57.7897 1.041
57.8062 0.915
57.8228 0.997
57.8393 0.904
57.8559 0.855
57.8724 0.953
57.8890 0.964
57.9055 0.882
57.9221 0.910
57.9386 0.849
57.9551 0.805
57.9717 0.942
57.9882 0.795
58.0048 0.877
58.0213 0.926
58.0379 0.899
58.0544 0.751
58.0710 0.893
58.0875 0.778
58.1041 0.910
58.1206 0.751
58.1371 0.871
58.1537 0.838
58.1702 0.855
58.1868 0.767
58.2033 0.718
58.2199 0.871
58.2364 0.756
58.2530 0.784
58.2695 0.663
58.2861 0.800
58.3026 0.816
58.3191 0.866
58.3357 0.647
58.3522 0.712
58.3688 0.712
58.3853 0.696
58.4019 0.647
58.4184 0.619
58.4350 0.570
58.4515 0.718
58.4681 0.603
58.4846 0.707
58.5011 0.745
58.5177 0.816
58.5342 0.641
58.5508 0.762
58.5673 0.756
58.5839 0.838
58.6004 0.668
58.6170 0.751
58.6335 0.707
58.6501 0.652
58.6666 0.679
58.6831 0.663
58.6997 0.729
58.7162 0.707
58.7328 0.729
58.7493 0.658
58.7659 0.597
58.7824 0.575
58.7990 0.614
58.8155 0.636
58.8321 0.652
58.8486 0.789
58.8651 0.729
58.8817 0.625
58.8982 0.696
58.9148 0.658
58.9313 0.729
58.9479 0.745
58.9644 0.795
58.9810 0.767
58.9975 0.784
59.0141 0.712
59.0306 0.619
59.0471 0.701
59.0637 0.641
59.0802 0.789
59.0968 0.784
59.1133 0.734
59.1299 0.893
59.1464 0.899
59.1630 0.767
59.1795 0.773
59.1961 0.910
59.2126 0.778
59.2291 0.800
59.2457 0.860
59.2622 1.068
59.2788 0.937
59.2953 1.008
59.3119 1.156
59.3284 1.162
59.3450 1.397
59.3615 1.233
59.3781 1.507
59.3946 1.534
59.4111 1.507
59.4277 1.353
59.4442 1.501
59.4608 1.249
59.4773 1.200
59.4939 1.036
59.5104 1.068
59.5270 1.288
59.5435 1.101
59.5601 1.211
59.5766 1.063
59.5931 0.970
59.6097 1.041
59.6262 0.937
59.6428 0.701
59.6593 0.778
59.6759 0.740
59.6924 0.723
59.7090 0.734
59.7255 0.608
59.7421 0.663
59.7586 0.537
59.7751 0.658
59.7917 0.751
59.8082 0.652
59.8248 0.641
59.8413 0.745
59.8579 0.679
59.8744 0.619
59.8910 0.701
59.9075 0.608
59.9241 0.658
59.9406 0.740
59.9571 0.718
59.9737 0.614
59.9902 0.619
60.0068 0.625
60.0233 0.690
60.0399 0.570
60.0564 0.696
60.0730 0.723
60.0895 0.734
60.1060 0.707
60.1226 0.630
60.1391 0.745
60.1557 0.608
60.1722 0.603
60.1888 0.784
60.2053 0.701
60.2219 0.614
60.2384 0.575
60.2550 0.690
60.2715 0.652
60.2880 0.658
60.3046 0.674
60.3211 0.668
60.3377 0.685
60.3542 0.690
60.3708 0.712
60.3873 0.756
60.4039 0.767
60.4204 0.745
60.4370 0.740
60.4535 0.822
60.4700 0.871
60.4866 0.871
60.5031 0.855
60.5197 0.844
60.5362 0.849
60.5528 0.953
60.5693 1.008
60.5859 0.932
60.6024 1.047
60.6190 1.123
60.6355 1.189
60.6520 1.271
60.6686 1.249
60.6851 1.490
60.7017 1.545
60.7182 1.984
60.7348 1.830
60.7513 2.351
60.7679 2.488
60.7844 2.422
60.8010 2.811
60.8175 3.145
60.8340 2.942
60.8506 2.986
60.8671 3.156
60.8837 3.315
60.9002 3.764
60.9168 3.797
60.9333 3.945
60.9499 4.033
60.9664 3.315
60.9830 3.003
60.9995 2.581
61.0160 2.460
61.0326 2.290
61.0491 1.984
61.0657 2.115
61.0822 2.279
61.0988 2.159
61.1153 1.984
61.1319 1.622
61.1484 1.545
61.1650 1.310
61.1815 1.047
61.1980 1.030
61.2146 0.816
61.2311 0.827
61.2477 0.921
61.2642 0.745
61.2808 0.778
61.2973 0.652
61.3139 0.690
61.3304 0.674
61.3470 0.619
61.3635 0.636
61.3800 0.723
61.3966 0.592
61.4131 0.751
61.4297 0.504
61.4462 0.663
61.4628 0.564
61.4793 0.740
61.4959 0.701
61.5124 0.548
61.5290 0.570
61.5455 0.542
61.5620 0.641
61.5786 0.663
61.5951 0.581
61.6117 0.630
61.6282 0.559
61.6448 0.455
61.6613 0.630
61.6779 0.575
61.6944 0.526
61.7110 0.581
61.7275 0.663
61.7440 0.570
61.7606 0.718
61.7771 0.636
61.7937 0.630
61.8102 0.614
61.8268 0.636
61.8433 0.581
61.8599 0.532
61.8764 0.526
61.8930 0.559
61.9095 0.455
61.9260 0.553
61.9426 0.756
61.9591 0.526
61.9757 0.603
61.9922 0.575
62.0088 0.542
62.0253 0.559
62.0419 0.674
62.0584 0.581
62.0750 0.586
62.0915 0.564
62.1080 0.625
62.1246 0.597
62.1411 0.564
62.1577 0.668
62.1742 0.521
62.1908 0.619
62.2073 0.564
62.2239 0.586
62.2404 0.564
62.2570 0.619
62.2735 0.658
62.2900 0.597
62.3066 0.614
62.3231 0.603
62.3397 0.499
62.3562 0.581
62.3728 0.553
62.3893 0.553
62.4059 0.521
62.4224 0.553
62.4390 0.449
62.4555 0.499
62.4720 0.586
62.4886 0.515
62.5051 0.614
62.5217 0.548
62.5382 0.559
62.5548 0.641
62.5713 0.488
62.5879 0.575
62.6044 0.521
62.6210 0.641
62.6375 0.532
62.6540 0.553
62.6706 0.521
62.6871 0.510
62.7037 0.504
62.7202 0.570
62.7368 0.652
62.7533 0.597
62.7699 0.482
62.7864 0.614
62.8029 0.466
62.8195 0.597
62.8360 0.658
62.8526 0.663
62.8691 0.592
62.8857 0.504
62.9022 0.619
62.9188 0.614
62.9353 0.570
62.9519 0.586
62.9684 0.553
62.9849 0.493
63.0015 0.537
63.0180 0.597
63.0346 0.553
63.0511 0.542
63.0677 0.521
63.0842 0.570
63.1008 0.553
63.1173 0.592
63.1339 0.597
63.1504 0.630
63.1669 0.548
63.1835 0.581
63.2000 0.499
63.2166 0.603
63.2331 0.564
63.2497 0.570
63.2662 0.482
63.2828 0.608
63.2993 0.581
63.3159 0.570
63.3324 0.570
63.3489 0.553
63.3655 0.581
63.3820 0.592
63.3986 0.712
63.4151 0.592
63.4317 0.564
63.4482 0.581
63.4648 0.553
63.4813 0.422
63.4979 0.668
63.5144 0.619
63.5309 0.542
63.5475 0.526
63.5640 0.647
63.5806 0.548
63.5971 0.548
63.6137 0.564
63.6302 0.542
63.6468 0.690
63.6633 0.586
63.6799 0.614
63.6964 0.614
63.7129 0.537
63.7295 0.625
63.7460 0.542
63.7626 0.647
63.7791 0.542
63.7957 0.559
63.8122 0.619
63.8288 0.466
63.8453 0.488
63.8619 0.636
63.8784 0.690
63.8949 0.619
63.9115 0.592
63.9280 0.488
63.9446 0.575
63.9611 0.603
63.9777 0.625
63.9942 0.663
64.0108 0.553
64.0273 0.575
64.0439 0.647
64.0604 0.608
64.0769 0.553
64.0935 0.701
64.1100 0.488
64.1266 0.592
64.1431 0.592
64.1597 0.614
64.1762 0.663
64.1928 0.537
64.2093 0.564
64.2259 0.537
64.2424 0.647
64.2589 0.526
64.2755 0.619
64.2920 0.586
64.3086 0.603
64.3251 0.553
64.3417 0.619
64.3582 0.647
64.3748 0.548
64.3913 0.586
64.4079 0.559
64.4244 0.575
64.4409 0.504
64.4575 0.597
64.4740 0.570
64.4906 0.668
64.5071 0.674
64.5237 0.542
64.5402 0.526
64.5568 0.641
64.5733 0.477
64.5899 0.548
64.6064 0.586
64.6229 0.707
64.6395 0.603
64.6560 0.521
64.6726 0.592
64.6891 0.690
64.7057 0.630
64.7222 0.641
64.7388 0.636
64.7553 0.740
64.7719 0.614
64.7884 0.592
64.8049 0.570
64.8215 0.712
64.8380 0.603
64.8546 0.614
64.8711 0.581
64.8877 0.625
64.9042 0.592
64.9208 0.636
64.9373 0.592
64.9539 0.630
64.9704 0.570
64.9869 0.542
65.0035 0.641
65.0200 0.586
65.0366 0.526
65.0531 0.619
65.0697 0.542
65.0862 0.723
65.1028 0.564
65.1193 0.559
65.1359 0.663
65.1524 0.575
65.1689 0.707
65.1855 0.734
65.2020 0.707
65.2186 0.690
65.2351 0.707
65.2517 0.663
65.2682 0.641
65.2848 0.636
65.3013 0.729
65.3179 0.723
65.3344 0.630
65.3509 0.652
65.3675 0.844
65.3840 0.734
65.4006 0.668
65.4171 0.784
65.4337 0.773
65.4502 0.630
65.4668 0.795
65.4833 0.877
65.4999 0.773
65.5164 0.789
65.5329 0.899
65.5495 0.882
65.5660 0.888
65.5826 0.729
65.5991 0.855
65.6157 0.882
65.6322 0.921
65.6488 0.893
65.6653 0.948
65.6818 1.118
65.6984 1.118
65.7149 1.090
65.7315 1.052
65.7480 1.282
65.7646 1.244
65.7811 1.392
65.7977 1.589
65.8142 1.611
65.8308 1.753
65.8473 2.022
65.8638 2.060
65.8804 2.148
65.8969 2.422
65.9135 2.795
65.9300 2.827
65.9466 3.348
65.9631 3.901
65.9797 4.323
65.9962 5.118
66.0128 6.071
66.0293 6.800
66.0458 8.219
66.0624 8.948
66.0789 10.619
66.0955 12.066
66.1120 13.381
66.1286 13.529
66.1451 13.288
66.1617 11.518
66.1782 10.268
66.1948 8.389
66.2113 7.238
66.2278 6.504
66.2444 6.362
66.2609 6.652
66.2775 6.921
66.2940 6.904
66.3106 7.101
66.3271 6.805
66.3437 6.274
66.3602 5.227
66.3768 4.055
66.3933 3.205
66.4098 2.537
66.4264 1.912
66.4429 1.797
66.4595 1.463
66.4760 1.299
66.4926 1.173
66.5091 1.151
66.5257 1.244
66.5422 0.959
66.5588 0.953
66.5753 1.008
66.5918 0.964
66.6084 0.975
66.6249 1.068
66.6415 0.778
66.6580 0.915
66.6746 1.101
66.6911 0.992
66.7077 0.795
66.7242 0.833
66.7408 0.860
66.7573 0.932
66.7738 0.855
66.7904 0.882
66.8069 0.718
66.8235 0.855
66.8400 0.800
66.8566 0.751
66.8731 0.882
66.8897 0.932
66.9062 0.800
66.9228 0.986
66.9393 0.751
66.9558 0.822
66.9724 0.844
66.9889 0.937
67.0055 0.904
67.0220 0.773
67.0386 0.926
67.0551 0.805
67.0717 0.866
67.0882 0.800
67.1048 0.844
67.1213 0.899
67.1378 0.959
67.1544 0.833
67.1709 1.003
67.1875 0.948
67.2040 0.888
67.2206 0.975
67.2371 0.877
67.2537 1.047
67.2702 1.063
67.2868 0.997
67.3033 1.145
67.3198 0.986
67.3364 1.353
67.3529 1.233
67.3695 1.255
67.3860 1.386
67.4026 1.496
67.4191 1.452
67.4357 1.501
67.4522 1.611
67.4688 1.907
67.4853 2.088
67.5018 2.285
67.5184 2.367
67.5349 2.537
67.5515 2.548
67.5680 2.849
67.5846 3.458
67.6011 3.671
67.6177 4.389
67.6342 4.932
67.6508 5.699
67.6673 6.510
67.6838 7.748
67.7004 8.915
67.7169 10.307
67.7335 11.408
67.7500 13.452
67.7666 15.710
67.7831 18.115
67.7997 19.748
67.8162 19.397
67.8328 18.921
67.8493 17.485
67.8658 14.055
67.8824 11.414
67.8989 10.142
67.9155 9.178
67.9320 8.773
67.9486 9.036
67.9651 9.836
67.9817 10.345
67.9982 10.362
68.0148 10.027
68.0313 8.992
68.0478 7.595
68.0644 5.973
68.0809 4.608
68.0975 3.479
68.1140 2.707
68.1306 2.164
68.1471 2.044
68.1637 1.770
68.1802 1.540
68.1968 1.501
68.2133 1.310
68.2298 1.233
68.2464 1.173
68.2629 1.205
68.2795 1.063
68.2960 1.047
68.3126 0.986
68.3291 1.014
68.3457 0.986
68.3622 0.921
68.3787 0.888
68.3953 0.800
68.4118 0.942
68.4284 0.822
68.4449 0.756
68.4615 0.855
68.4780 0.751
68.4946 0.701
68.5111 0.712
68.5277 0.690
68.5442 0.827
68.5607 0.723
68.5773 0.773
68.5938 0.707
68.6104 0.641
68.6269 0.729
68.6435 0.701
68.6600 0.663
68.6766 0.647
68.6931 0.751
68.7097 0.668
68.7262 0.701
68.7427 0.701
68.7593 0.641
68.7758 0.608
68.7924 0.696
68.8089 0.668
68.8255 0.701
68.8420 0.608
68.8586 0.559
68.8751 0.679
68.8917 0.581
68.9082 0.570
68.9247 0.559
68.9413 0.647
68.9578 0.729
68.9744 0.619
68.9909 0.586
69.0075 0.630
69.0240 0.542
69.0406 0.630
69.0571 0.647
69.0737 0.625
69.0902 0.553
69.1067 0.729
69.1233 0.564
69.1398 0.636
69.1564 0.564
69.1729 0.542
69.1895 0.658
69.2060 0.652
69.2226 0.603
69.2391 0.532
69.2557 0.619
69.2722 0.740
69.2887 0.581
69.3053 0.444
69.3218 0.526
69.3384 0.570
69.3549 0.575
69.3715 0.521
69.3880 0.619
69.4046 0.581
69.4211 0.625
69.4377 0.559
69.4542 0.614
69.4707 0.597
69.4873 0.575
69.5038 0.510
69.5204 0.510
69.5369 0.532
69.5535 0.592
69.5700 0.564
69.5866 0.701
69.6031 0.570
69.6197 0.603
69.6362 0.636
69.6527 0.597
69.6693 0.608
69.6858 0.630
69.7024 0.641
69.7189 0.696
69.7355 0.723
69.7520 0.625
69.7686 0.740
69.7851 0.647
69.8017 0.696
69.8182 0.668
69.8347 0.690
69.8513 0.740
69.8678 0.751
69.8844 0.981
69.9009 0.866
69.9175 0.855
69.9340 0.871
69.9506 0.948
69.9671 0.942
69.9837 0.975
70.0002 0.926
