'Id: "" Comment: "" Operator: "Administrator" Anode: "Cu" Scantype: "Locked Coupled" TimePerStep: "182.5" X: "0" Y: "0" Z: "0" 
20.0000 2.389
20.0165 2.318
20.0331 2.345
20.0496 2.422
20.0662 2.674
20.0827 2.395
20.0993 2.449
20.1158 2.416
20.1324 2.493
20.1489 2.384
20.1655 2.559
20.1820 2.378
20.1985 2.400
20.2151 2.395
20.2316 2.197
20.2482 2.312
20.2647 2.373
20.2813 2.241
20.2978 2.318
20.3144 2.192
20.3309 2.351
20.3475 2.219
20.3640 2.449
20.3805 2.121
20.3971 2.148
20.4136 2.553
20.4302 2.329
20.4467 2.345
20.4633 2.411
20.4798 2.252
20.4964 2.323
20.5129 2.351
20.5295 2.181
20.5460 2.323
20.5625 2.345
20.5791 2.493
20.5956 2.340
20.6122 2.351
20.6287 2.241
20.6453 2.219
20.6618 2.230
20.6784 2.033
20.6949 2.378
20.7115 2.345
20.7280 2.362
20.7445 2.219
20.7611 2.192
20.7776 2.334
20.7942 2.219
20.8107 2.170
20.8273 2.159
20.8438 2.104
20.8604 2.427
20.8769 2.214
20.8935 2.099
20.9100 2.362
20.9265 1.956
20.9431 2.263
20.9596 2.230
20.9762 2.071
20.9927 2.268
21.0093 2.214
21.0258 1.929
21.0424 2.236
21.0589 2.301
21.0755 2.279
21.0920 2.132
21.1085 2.192
21.1251 2.345
21.1416 2.285
21.1582 2.268
21.1747 2.258
21.1913 2.296
21.2078 2.351
21.2244 2.405
21.2409 2.225
21.2575 2.236
21.2740 2.312
21.2905 2.362
21.3071 2.395
21.3236 2.082
21.3402 2.093
21.3567 2.323
21.3733 2.444
21.3898 2.016
21.4064 2.137
21.4229 2.285
21.4394 2.219
21.4560 2.307
21.4725 2.148
21.4891 2.049
21.5056 2.318
21.5222 2.142
21.5387 2.318
21.5553 2.290
21.5718 2.148
21.5884 2.159
21.6049 2.285
21.6214 2.252
21.6380 2.060
21.6545 2.395
21.6711 2.290
21.6876 2.175
21.7042 2.060
21.7207 2.126
21.7373 2.329
21.7538 2.274
21.7704 2.241
21.7869 2.153
21.8034 2.153
21.8200 2.236
21.8365 2.208
21.8531 2.367
21.8696 2.318
21.8862 2.181
21.9027 2.296
21.9193 2.334
21.9358 2.252
21.9524 2.192
21.9689 2.301
21.9854 2.115
22.0020 2.071
22.0185 2.148
22.0351 2.137
22.0516 2.181
22.0682 2.027
22.0847 2.263
22.1013 2.181
22.1178 2.137
22.1344 2.142
22.1509 2.142
22.1674 2.022
22.1840 2.049
22.2005 2.373
22.2171 1.918
22.2336 2.038
22.2502 2.142
22.2667 1.934
22.2833 2.033
22.2998 2.104
22.3164 1.918
22.3329 1.896
22.3494 2.137
22.3660 2.115
22.3825 2.038
22.3991 1.978
22.4156 2.049
22.4322 1.934
22.4487 1.973
22.4653 1.940
22.4818 2.115
22.4984 2.060
22.5149 1.956
22.5314 1.841
22.5480 2.175
22.5645 2.170
22.5811 2.077
22.5976 1.956
22.6142 1.879
22.6307 2.137
22.6473 2.049
22.6638 1.984
22.6804 2.044
22.6969 2.203
22.7134 2.077
22.7300 1.945
22.7465 2.121
22.7631 1.825
22.7796 2.088
22.7962 2.110
22.8127 2.077
22.8293 1.940
22.8458 1.858
22.8624 1.885
22.8789 2.055
22.8954 2.027
22.9120 1.989
22.9285 2.077
22.9451 1.918
22.9616 2.027
22.9782 2.093
22.9947 2.099
23.0113 2.022
23.0278 2.159
23.0444 1.912
23.0609 1.962
23.0774 2.104
23.0940 1.841
23.1105 1.803
23.1271 1.967
23.1436 1.814
23.1602 1.841
23.1767 1.967
23.1933 1.896
23.2098 1.945
23.2264 1.792
23.2429 2.049
23.2594 2.000
23.2760 1.995
23.2925 1.962
23.3091 1.962
23.3256 2.038
23.3422 1.885
23.3587 2.049
23.3753 2.011
23.3918 1.836
23.4084 1.973
23.4249 1.819
23.4414 1.989
23.4580 2.175
23.4745 2.088
23.4911 1.978
23.5076 1.929
23.5242 2.077
23.5407 1.797
23.5573 2.071
23.5738 1.929
23.5904 1.973
23.6069 1.934
23.6234 1.819
23.6400 1.847
23.6565 1.814
23.6731 1.666
23.6896 2.022
23.7062 1.956
23.7227 1.978
23.7393 2.055
23.7558 1.879
23.7724 1.863
23.7889 1.792
23.8054 1.841
23.8220 1.984
23.8385 1.847
23.8551 2.175
23.8716 2.170
23.8882 2.137
23.9047 2.099
23.9213 2.186
23.9378 2.268
23.9544 2.055
23.9709 2.181
23.9874 2.219
24.0040 2.268
24.0205 2.159
24.0371 2.093
24.0536 2.268
24.0702 2.247
24.0867 2.252
24.1033 2.258
24.1198 2.405
24.1364 2.367
24.1529 2.405
24.1694 2.071
24.1860 2.268
24.2025 2.488
24.2191 2.263
24.2356 2.323
24.2522 2.504
24.2687 2.301
24.2853 2.367
24.3018 2.477
24.3183 2.208
24.3349 2.416
24.3514 2.504
24.3680 2.515
24.3845 2.466
24.4011 2.268
24.4176 2.405
24.4342 2.521
24.4507 2.575
24.4673 2.460
24.4838 2.521
24.5003 2.438
24.5169 2.537
24.5334 2.521
24.5500 2.542
24.5665 2.674
24.5831 2.641
24.5996 2.575
24.6162 2.625
24.6327 2.685
24.6493 2.729
24.6658 2.504
24.6823 2.860
24.6989 2.679
24.7154 2.630
24.7320 2.975
24.7485 2.504
24.7651 2.581
24.7816 2.860
24.7982 2.701
24.8147 2.701
24.8313 2.614
24.8478 2.559
24.8643 2.800
24.8809 2.460
24.8974 2.537
24.9140 2.625
24.9305 2.784
24.9471 2.784
24.9636 2.773
24.9802 2.647
24.9967 2.904
25.0133 2.663
25.0298 2.910
25.0463 2.784
25.0629 2.679
25.0794 2.970
25.0960 3.008
25.1125 2.926
25.1291 2.838
25.1456 3.227
25.1622 3.353
25.1787 3.447
25.1953 3.326
25.2118 3.573
25.2283 3.814
25.2449 3.951
25.2614 4.219
25.2780 4.247
25.2945 5.118
25.3111 5.463
25.3276 6.877
25.3442 7.277
25.3607 8.537
25.3773 10.192
25.3938 12.405
25.4103 15.485
25.4269 18.707
25.4434 24.038
25.4600 29.222
25.4765 33.414
25.4931 37.419
25.5096 36.466
25.5262 32.877
25.5427 29.518
25.5593 24.932
25.5758 20.986
25.5923 15.425
25.6089 11.940
25.6254 8.992
25.6420 6.625
25.6585 5.567
25.6751 4.800
25.6916 3.852
25.7082 3.573
25.7247 3.425
25.7413 3.184
25.7578 2.866
25.7743 3.299
25.7909 2.915
25.8074 2.718
25.8240 2.778
25.8405 2.762
25.8571 2.723
25.8736 2.460
25.8902 2.400
25.9067 2.603
25.9233 2.362
25.9398 2.279
25.9563 2.279
25.9729 2.471
25.9894 2.334
26.0060 2.548
26.0225 2.290
26.0391 2.323
26.0556 2.493
26.0722 2.427
26.0887 2.110
26.1053 2.181
26.1218 2.384
26.1383 2.236
26.1549 2.581
26.1714 2.367
26.1880 2.301
26.2045 2.356
26.2211 2.411
26.2376 2.236
26.2542 2.132
26.2707 2.279
26.2873 2.499
26.3038 2.241
26.3203 1.956
26.3369 2.082
26.3534 2.044
26.3700 2.137
26.3865 2.219
26.4031 2.022
26.4196 2.208
26.4362 2.082
26.4527 2.197
26.4693 2.022
26.4858 2.055
26.5023 2.263
26.5189 2.477
26.5354 2.082
26.5520 2.203
26.5685 2.022
26.5851 2.000
26.6016 2.263
26.6182 2.230
26.6347 1.940
26.6513 1.907
26.6678 2.170
26.6843 1.995
26.7009 2.060
26.7174 2.290
26.7340 2.005
26.7505 2.241
26.7671 1.989
26.7836 2.044
26.8002 2.121
26.8167 2.132
26.8333 2.247
26.8498 1.901
26.8663 1.901
26.8829 1.863
26.8994 2.000
26.9160 2.022
26.9325 1.940
26.9491 2.027
26.9656 1.885
26.9822 2.038
26.9987 2.005
27.0152 1.940
27.0318 1.934
27.0483 1.995
27.0649 1.962
27.0814 1.896
27.0980 1.984
27.1145 1.759
27.1311 1.819
27.1476 2.044
27.1642 2.126
27.1807 1.967
27.1972 1.967
27.2138 2.060
27.2303 1.907
27.2469 1.830
27.2634 2.066
27.2800 1.726
27.2965 1.945
27.3131 2.099
27.3296 1.934
27.3462 1.633
27.3627 1.951
27.3792 1.797
27.3958 1.649
27.4123 1.912
27.4289 1.770
27.4454 1.852
27.4620 1.803
27.4785 1.764
27.4951 1.967
27.5116 1.879
27.5282 1.688
27.5447 1.863
27.5612 1.786
27.5778 1.710
27.5943 2.016
27.6109 1.858
27.6274 1.819
27.6440 2.066
27.6605 1.830
27.6771 1.912
27.6936 1.868
27.7102 1.885
27.7267 1.759
27.7432 1.753
27.7598 1.737
27.7763 1.737
27.7929 1.868
27.8094 1.786
27.8260 1.825
27.8425 1.622
27.8591 1.830
27.8756 1.879
27.8922 1.786
27.9087 1.732
27.9252 1.863
27.9418 1.797
27.9583 1.710
27.9749 1.775
27.9914 1.863
28.0080 1.879
28.0245 1.978
28.0411 1.825
28.0576 1.781
28.0742 1.600
28.0907 1.710
28.1072 1.589
28.1238 1.578
28.1403 1.518
28.1569 1.786
28.1734 1.742
28.1900 1.830
28.2065 1.710
28.2231 1.677
28.2396 1.649
28.2562 1.699
28.2727 1.666
28.2892 1.721
28.3058 1.627
28.3223 1.742
28.3389 1.726
28.3554 1.786
28.3720 1.540
28.3885 1.726
28.4051 1.638
28.4216 1.644
28.4382 1.496
28.4547 1.512
28.4712 1.468
28.4878 1.671
28.5043 1.551
28.5209 1.551
28.5374 1.545
28.5540 1.474
28.5705 1.496
28.5871 1.490
28.6036 1.578
28.6202 1.458
28.6367 1.671
28.6532 1.441
28.6698 1.671
28.6863 1.507
28.7029 1.616
28.7194 1.556
28.7360 1.611
28.7525 1.545
28.7691 1.578
28.7856 1.562
28.8022 1.534
28.8187 1.753
28.8352 1.468
28.8518 1.600
28.8683 1.600
28.8849 1.584
28.9014 1.458
28.9180 1.534
28.9345 1.430
28.9511 1.501
28.9676 1.562
28.9842 1.507
29.0007 1.310
29.0172 1.534
29.0338 1.589
29.0503 1.419
29.0669 1.408
29.0834 1.562
29.1000 1.501
29.1165 1.414
29.1331 1.359
29.1496 1.425
29.1662 1.534
29.1827 1.545
29.1992 1.479
29.2158 1.490
29.2323 1.419
29.2489 1.600
29.2654 1.567
29.2820 1.600
29.2985 1.271
29.3151 1.348
29.3316 1.386
29.3482 1.534
29.3647 1.479
29.3812 1.458
29.3978 1.441
29.4143 1.534
29.4309 1.452
29.4474 1.386
29.4640 1.392
29.4805 1.359
29.4971 1.370
29.5136 1.441
29.5302 1.266
29.5467 1.381
29.5632 1.414
29.5798 1.419
29.5963 1.321
29.6129 1.370
29.6294 1.441
29.6460 1.260
29.6625 1.397
29.6791 1.348
29.6956 1.468
29.7121 1.419
29.7287 1.578
29.7452 1.337
29.7618 1.321
29.7783 1.425
29.7949 1.353
29.8114 1.227
29.8280 1.589
29.8445 1.353
29.8611 1.359
29.8776 1.496
29.8941 1.518
29.9107 1.260
29.9272 1.260
29.9438 1.321
29.9603 1.408
29.9769 1.463
29.9934 1.310
30.0100 1.310
30.0265 1.441
30.0431 1.501
30.0596 1.386
30.0761 1.189
30.0927 1.211
30.1092 1.310
30.1258 1.419
30.1423 1.370
30.1589 1.342
30.1754 1.216
30.1920 1.310
30.2085 1.321
30.2251 1.227
30.2416 1.200
30.2581 1.436
30.2747 1.277
30.2912 1.310
30.3078 1.211
30.3243 1.244
30.3409 1.260
30.3574 1.260
30.3740 1.414
30.3905 1.288
30.4071 1.211
30.4236 1.222
30.4401 1.205
30.4567 1.200
30.4732 1.337
30.4898 1.299
30.5063 1.348
30.5229 1.326
30.5394 1.419
30.5560 1.299
30.5725 1.321
30.5891 1.107
30.6056 1.288
30.6221 1.216
30.6387 1.074
30.6552 1.123
30.6718 1.244
30.6883 1.238
30.7049 1.173
30.7214 1.227
30.7380 1.282
30.7545 1.238
30.7711 1.123
30.7876 1.326
30.8041 1.151
30.8207 1.332
30.8372 1.244
30.8538 1.184
30.8703 1.211
30.8869 1.118
30.9034 1.112
30.9200 1.140
30.9365 1.375
30.9531 1.118
30.9696 1.321
30.9861 1.178
31.0027 1.140
31.0192 1.101
31.0358 1.189
31.0523 1.326
31.0689 1.353
31.0854 1.101
31.1020 1.205
31.1185 1.227
31.1351 1.321
31.1516 1.392
31.1681 1.293
31.1847 1.227
31.2012 1.145
31.2178 1.216
31.2343 1.151
31.2509 1.255
31.2674 1.173
31.2840 1.079
31.3005 1.167
31.3171 1.200
31.3336 1.145
31.3501 1.107
31.3667 1.184
31.3832 1.041
31.3998 1.277
31.4163 1.233
31.4329 1.118
31.4494 1.255
31.4660 1.184
31.4825 1.151
31.4991 1.167
31.5156 1.178
31.5321 1.173
31.5487 1.260
31.5652 1.167
31.5818 1.227
31.5983 1.288
31.6149 1.112
31.6314 1.189
31.6480 1.200
31.6645 1.178
31.6811 1.200
31.6976 1.129
31.7141 1.123
31.7307 1.227
31.7472 1.008
31.7638 1.058
31.7803 1.096
31.7969 1.063
31.8134 1.112
31.8300 1.085
31.8465 1.222
31.8631 1.255
31.8796 1.184
31.8961 1.014
31.9127 1.058
31.9292 1.118
31.9458 1.096
31.9623 0.942
31.9789 1.222
31.9954 1.216
32.0120 0.844
32.0285 1.074
32.0451 1.008
32.0616 1.195
32.0781 1.079
32.0947 1.090
32.1112 1.096
32.1278 1.156
32.1443 0.997
32.1609 1.129
32.1774 1.167
32.1940 1.211
32.2105 0.986
32.2271 0.871
32.2436 1.074
32.2601 1.041
32.2767 1.233
32.2932 1.063
32.3098 1.068
32.3263 1.041
32.3429 1.090
32.3594 1.090
32.3760 1.096
32.3925 1.162
32.4091 1.036
32.4256 1.151
32.4421 1.058
32.4587 1.112
32.4752 1.178
32.4918 1.090
32.5083 1.156
32.5249 1.101
32.5414 0.964
32.5580 1.074
32.5745 1.129
32.5910 0.997
32.6076 1.112
32.6241 1.189
32.6407 0.970
32.6572 1.074
32.6738 1.112
32.6903 1.271
32.7069 1.107
32.7234 1.052
32.7400 1.101
32.7565 0.992
32.7730 1.090
32.7896 1.030
32.8061 1.096
32.8227 1.025
32.8392 1.189
32.8558 1.003
32.8723 1.189
32.8889 1.079
32.9054 1.156
32.9220 1.129
32.9385 0.932
32.9550 1.140
32.9716 1.107
32.9881 1.036
33.0047 1.063
33.0212 1.063
33.0378 0.964
33.0543 1.205
33.0709 1.008
33.0874 1.003
33.1040 1.101
33.1205 1.167
33.1370 1.041
33.1536 0.964
33.1701 1.112
33.1867 1.074
33.2032 0.937
33.2198 1.041
33.2363 1.036
33.2529 1.101
33.2694 1.074
33.2860 1.123
33.3025 0.904
33.3190 1.063
33.3356 1.030
33.3521 1.030
33.3687 1.008
33.3852 0.942
33.4018 0.981
33.4183 0.910
33.4349 1.079
33.4514 0.932
33.4680 1.074
33.4845 1.156
33.5010 0.970
33.5176 0.959
33.5341 1.134
33.5507 1.090
33.5672 1.134
33.5838 1.090
33.6003 1.162
33.6169 1.101
33.6334 1.118
33.6500 0.992
33.6665 1.129
33.6830 1.025
33.6996 1.123
33.7161 1.036
33.7327 1.205
33.7492 1.101
33.7658 1.101
33.7823 1.101
33.7989 1.266
33.8154 1.315
33.8320 1.304
33.8485 1.189
33.8650 1.310
33.8816 1.348
33.8981 1.337
33.9147 1.195
33.9312 1.184
33.9478 1.222
33.9643 1.249
33.9809 1.381
33.9974 1.118
34.0140 1.238
34.0305 1.255
34.0470 1.370
34.0636 1.359
34.0801 1.244
34.0967 1.068
34.1132 1.277
34.1298 1.255
34.1463 1.441
34.1629 1.332
34.1794 1.238
34.1960 1.271
34.2125 1.353
34.2290 1.337
34.2456 1.310
34.2621 1.359
34.2787 1.310
34.2952 1.408
34.3118 1.447
34.3283 1.321
34.3449 1.447
34.3614 1.359
34.3780 1.474
34.3945 1.392
34.4110 1.458
34.4276 1.386
34.4441 1.556
34.4607 1.512
34.4772 1.342
34.4938 1.403
34.5103 1.474
34.5269 1.655
34.5434 1.540
34.5600 1.732
34.5765 1.808
34.5930 1.879
34.6096 1.715
34.6261 2.104
34.6427 2.027
34.6592 2.279
34.6758 2.219
34.6923 2.696
34.7089 2.981
34.7254 2.986
34.7420 3.512
34.7585 3.507
34.7750 4.411
34.7916 4.466
34.8081 4.948
34.8247 6.203
34.8412 6.800
34.8578 8.192
34.8743 9.682
34.8909 11.518
34.9074 14.197
34.9240 16.953
34.9405 20.548
34.9570 25.458
34.9736 31.151
34.9901 38.899
35.0067 45.967
35.0232 49.540
35.0398 50.214
35.0563 44.411
35.0729 38.811
35.0894 34.405
35.1060 31.233
35.1225 27.567
35.1390 22.395
35.1556 17.907
35.1721 13.304
35.1887 9.112
35.2052 6.795
35.2218 5.134
35.2383 4.411
35.2549 3.611
35.2714 3.052
35.2879 2.882
35.3045 2.395
35.3210 2.564
35.3376 2.170
35.3541 2.121
35.3707 1.951
35.3872 1.808
35.4038 1.907
35.4203 1.671
35.4369 1.644
35.4534 1.518
35.4699 1.540
35.4865 1.534
35.5030 1.518
35.5196 1.474
35.5361 1.485
35.5527 1.463
35.5692 1.304
35.5858 1.419
35.6023 1.249
35.6189 1.375
35.6354 1.463
35.6519 1.447
35.6685 1.452
35.6850 1.200
35.7016 1.282
35.7181 1.397
35.7347 1.315
35.7512 1.107
35.7678 1.392
35.7843 1.332
35.8009 1.271
35.8174 1.222
35.8339 1.315
35.8505 1.178
35.8670 1.266
35.8836 1.156
35.9001 1.195
35.9167 1.184
35.9332 1.107
35.9498 1.107
35.9663 1.079
35.9829 1.178
35.9994 0.964
36.0159 0.997
36.0325 1.068
36.0490 1.112
36.0656 0.997
36.0821 1.074
36.0987 1.178
36.1152 1.167
36.1318 1.079
36.1483 1.184
36.1649 1.189
36.1814 1.260
36.1979 1.041
36.2145 1.244
36.2310 1.134
36.2476 1.041
36.2641 1.047
36.2807 1.156
36.2972 1.085
36.3138 1.112
36.3303 1.151
36.3469 1.019
36.3634 1.178
36.3799 1.195
36.3965 1.112
36.4130 1.167
36.4296 1.047
36.4461 1.090
36.4627 1.233
36.4792 1.211
36.4958 1.184
36.5123 1.342
36.5289 1.090
36.5454 1.167
36.5619 1.096
36.5785 1.068
36.5950 1.036
36.6116 1.195
36.6281 1.200
36.6447 1.260
36.6612 1.101
36.6778 1.178
36.6943 0.899
36.7109 1.129
36.7274 1.233
36.7439 1.129
36.7605 1.107
36.7770 1.063
36.7936 1.118
36.8101 1.266
36.8267 0.926
36.8432 1.211
36.8598 1.123
36.8763 1.123
36.8929 1.216
36.9094 1.162
36.9259 1.085
36.9425 1.205
36.9590 1.123
36.9756 1.090
36.9921 1.222
37.0087 1.096
37.0252 1.337
37.0418 1.266
37.0583 1.167
37.0749 1.233
37.0914 1.162
37.1079 1.200
37.1245 1.277
37.1410 1.101
37.1576 1.397
37.1741 1.249
37.1907 1.244
37.2072 1.211
37.2238 1.260
37.2403 1.348
37.2569 1.337
37.2734 1.326
37.2899 1.616
37.3065 1.545
37.3230 1.644
37.3396 1.753
37.3561 1.989
37.3727 1.989
37.3892 2.307
37.4058 2.236
37.4223 2.696
37.4389 2.734
37.4554 3.584
37.4719 3.397
37.4885 4.258
37.5050 4.389
37.5216 5.277
37.5381 6.811
37.5547 8.159
37.5712 9.786
37.5878 11.770
37.6043 14.460
37.6209 16.740
37.6374 19.178
37.6539 19.348
37.6705 19.578
37.6870 16.970
37.7036 15.578
37.7201 13.496
37.7367 12.033
37.7532 11.227
37.7698 9.721
37.7863 7.923
37.8029 5.912
37.8194 4.099
37.8359 3.156
37.8525 2.855
37.8690 2.301
37.8856 1.814
37.9021 2.033
37.9187 1.721
37.9352 1.633
37.9518 1.315
37.9683 1.348
37.9848 1.392
38.0014 1.299
38.0179 1.332
38.0345 1.282
38.0510 1.195
38.0676 1.178
38.0841 1.162
38.1007 1.266
38.1172 1.140
38.1338 1.173
38.1503 1.101
38.1668 1.118
38.1834 1.096
38.1999 1.041
38.2165 1.003
38.2330 1.096
38.2496 1.129
38.2661 1.107
38.2827 1.079
38.2992 1.173
38.3158 1.079
38.3323 1.068
38.3488 1.129
38.3654 0.992
38.3819 0.959
38.3985 1.036
38.4150 1.014
38.4316 1.184
38.4481 1.074
38.4647 1.079
38.4812 1.063
38.4978 0.953
38.5143 0.926
38.5308 0.937
38.5474 1.096
38.5639 1.123
38.5805 0.866
38.5970 1.112
38.6136 1.003
38.6301 0.937
38.6467 1.112
38.6632 0.975
38.6798 0.986
38.6963 0.981
38.7128 0.932
38.7294 0.970
38.7459 1.058
38.7625 1.019
38.7790 0.904
38.7956 0.975
38.8121 0.970
38.8287 0.964
38.8452 1.096
38.8618 1.036
38.8783 1.063
38.8948 0.992
38.9114 1.030
38.9279 0.866
38.9445 0.915
38.9610 0.986
38.9776 0.975
38.9941 0.981
39.0107 0.953
39.0272 0.992
39.0438 0.942
39.0603 0.942
39.0768 1.047
39.0934 1.047
39.1099 0.921
39.1265 0.827
39.1430 1.074
39.1596 1.074
39.1761 0.816
39.1927 0.778
39.2092 0.953
39.2258 0.877
39.2423 0.915
39.2588 0.910
39.2754 0.762
39.2919 0.937
39.3085 0.904
39.3250 1.014
39.3416 0.833
39.3581 0.932
39.3747 0.926
39.3912 0.926
39.4078 0.849
39.4243 0.899
39.4408 0.838
39.4574 0.910
39.4739 0.855
39.4905 0.910
39.5070 0.849
39.5236 0.877
39.5401 0.860
39.5567 0.877
39.5732 0.981
39.5898 0.921
39.6063 1.030
39.6228 0.855
39.6394 0.849
39.6559 0.882
39.6725 0.844
39.6890 0.899
39.7056 0.959
39.7221 0.871
39.7387 0.784
39.7552 0.926
39.7718 0.932
39.7883 0.838
39.8048 0.849
39.8214 0.932
39.8379 0.866
39.8545 0.932
39.8710 0.937
39.8876 0.805
39.9041 0.937
39.9207 0.784
39.9372 0.751
39.9538 0.849
39.9703 0.882
39.9868 0.789
40.0034 0.899
40.0199 0.948
40.0365 0.899
40.0530 1.008
40.0696 0.975
40.0861 0.986
40.1027 0.822
40.1192 0.816
40.1358 0.800
40.1523 0.888
40.1688 0.795
40.1854 0.784
40.2019 0.899
40.2185 0.751
40.2350 0.827
40.2516 0.948
40.2681 0.893
40.2847 0.910
40.3012 0.773
40.3178 0.904
40.3343 0.882
40.3508 0.784
40.3674 0.871
40.3839 0.789
40.4005 0.921
40.4170 0.827
40.4336 0.882
40.4501 0.723
40.4667 0.926
40.4832 0.926
40.4998 0.926
40.5163 0.849
40.5328 0.926
40.5494 0.915
40.5659 0.904
40.5825 0.970
40.5990 0.690
40.6156 0.756
40.6321 0.827
40.6487 0.888
40.6652 0.932
40.6818 0.822
40.6983 0.893
40.7148 0.866
40.7314 0.932
40.7479 0.910
40.7645 0.838
40.7810 0.948
40.7976 0.871
40.8141 0.893
40.8307 0.827
40.8472 0.838
40.8637 0.871
40.8803 0.805
40.8968 0.811
40.9134 0.729
40.9299 0.734
40.9465 0.899
40.9630 0.921
40.9796 0.860
40.9961 0.882
41.0127 0.882
41.0292 0.762
41.0457 0.827
41.0623 0.937
41.0788 0.811
41.0954 0.762
41.1119 0.855
41.1285 0.915
41.1450 0.866
41.1616 0.849
41.1781 0.789
41.1947 0.805
41.2112 0.893
41.2277 0.723
41.2443 0.860
41.2608 0.942
41.2774 0.888
41.2939 0.959
41.3105 0.986
41.3270 0.745
41.3436 0.937
41.3601 0.942
41.3767 1.047
41.3932 0.953
41.4097 0.986
41.4263 1.101
41.4428 1.074
41.4594 1.123
41.4759 1.129
41.4925 1.156
41.5090 1.260
41.5256 1.277
41.5421 1.189
41.5587 1.321
41.5752 1.058
41.5917 1.101
41.6083 1.151
41.6248 1.112
41.6414 1.200
41.6579 1.151
41.6745 1.140
41.6910 1.151
41.7076 1.052
41.7241 1.014
41.7407 1.101
41.7572 0.932
41.7737 1.068
41.7903 0.970
41.8068 0.921
41.8234 0.904
41.8399 1.222
41.8565 1.030
41.8730 0.910
41.8896 0.953
41.9061 0.915
41.9227 0.997
41.9392 0.970
41.9557 0.932
41.9723 0.893
41.9888 0.964
42.0054 0.970
42.0219 1.140
42.0385 0.953
42.0550 1.063
42.0716 0.937
42.0881 1.014
42.1047 0.877
42.1212 1.019
42.1377 1.107
42.1543 0.970
42.1708 0.986
42.1874 1.129
42.2039 1.041
42.2205 1.019
42.2370 1.058
42.2536 1.003
42.2701 0.959
42.2867 0.948
42.3032 1.222
42.3197 1.036
42.3363 1.036
42.3528 1.003
42.3694 1.058
42.3859 1.019
42.4025 1.052
42.4190 1.090
42.4356 1.195
42.4521 1.129
42.4687 1.118
42.4852 1.200
42.5017 1.200
42.5183 1.271
42.5348 1.178
42.5514 1.140
42.5679 1.167
42.5845 1.249
42.6010 1.310
42.6176 1.244
42.6341 1.397
42.6507 1.282
42.6672 1.414
42.6837 1.282
42.7003 1.567
42.7168 1.507
42.7334 1.452
42.7499 1.485
42.7665 1.901
42.7830 1.819
42.7996 1.967
42.8161 2.230
42.8327 2.356
42.8492 2.449
42.8657 2.805
42.8823 2.800
42.8988 3.282
42.9154 3.611
42.9319 4.093
42.9485 4.471
42.9650 5.112
42.9816 5.912
42.9981 6.734
43.0147 7.715
43.0312 8.679
43.0477 10.526
43.0643 12.855
43.0808 15.266
43.0974 17.901
43.1139 21.238
43.1305 26.663
43.1470 31.863
43.1636 38.011
43.1801 44.855
43.1967 49.123
43.2132 48.707
43.2297 43.852
43.2463 37.803
43.2628 32.175
43.2794 29.529
43.2959 27.940
43.3125 26.422
43.3290 23.666
43.3456 20.219
43.3621 14.855
43.3787 11.348
43.3952 7.529
43.4117 5.715
43.4283 4.734
43.4448 3.803
43.4614 3.277
43.4779 3.195
43.4945 2.559
43.5110 2.422
43.5276 2.071
43.5441 1.923
43.5606 1.847
43.5772 1.885
43.5937 1.584
43.6103 1.616
43.6268 1.595
43.6434 1.567
43.6599 1.304
43.6765 1.447
43.6930 1.414
43.7096 1.403
43.7261 1.156
43.7426 1.392
43.7592 1.337
43.7757 1.227
43.7923 1.332
43.8088 1.123
43.8254 1.238
43.8419 1.238
43.8585 1.222
43.8750 1.129
43.8916 0.997
43.9081 1.096
43.9246 0.904
43.9412 1.134
43.9577 1.058
43.9743 1.063
43.9908 0.975
44.0074 0.992
44.0239 1.063
44.0405 1.118
44.0570 0.882
44.0736 0.915
44.0901 0.882
44.1066 0.844
44.1232 0.975
44.1397 0.959
44.1563 0.871
44.1728 0.877
44.1894 0.893
44.2059 0.849
44.2225 0.942
44.2390 0.910
44.2556 0.904
44.2721 0.816
44.2886 0.811
44.3052 0.970
44.3217 0.953
44.3383 0.844
44.3548 0.762
44.3714 0.932
44.3879 0.860
44.4045 0.915
44.4210 0.871
44.4376 0.959
44.4541 0.932
44.4706 0.899
44.4872 0.860
44.5037 0.778
44.5203 0.871
44.5368 0.855
44.5534 0.734
44.5699 0.871
44.5865 0.784
44.6030 0.827
44.6196 0.734
44.6361 0.932
44.6526 0.953
44.6692 0.904
44.6857 0.855
44.7023 0.860
44.7188 0.904
44.7354 0.915
44.7519 0.953
44.7685 0.816
44.7850 0.899
44.8016 0.866
44.8181 0.877
44.8346 0.866
44.8512 0.860
44.8677 0.827
44.8843 0.767
44.9008 0.844
44.9174 0.805
44.9339 0.773
44.9505 0.827
44.9670 0.751
44.9836 0.855
45.0001 0.767
45.0166 0.827
45.0332 0.778
45.0497 0.866
45.0663 0.833
45.0828 0.926
45.0994 0.855
45.1159 0.816
45.1325 0.893
45.1490 0.647
45.1656 0.773
45.1821 0.877
45.1986 0.778
45.2152 0.767
45.2317 0.712
45.2483 0.789
45.2648 0.795
45.2814 0.789
45.2979 0.729
45.3145 0.795
45.3310 0.822
45.3476 0.833
45.3641 0.844
45.3806 0.849
45.3972 0.718
45.4137 0.679
45.4303 0.805
45.4468 0.751
45.4634 0.800
45.4799 0.805
45.4965 0.860
45.5130 0.882
45.5296 0.729
45.5461 0.827
45.5626 0.762
45.5792 0.844
45.5957 0.937
45.6123 0.784
45.6288 0.756
45.6454 0.740
45.6619 0.805
45.6785 0.734
45.6950 0.784
45.7116 0.844
45.7281 0.773
45.7446 0.795
45.7612 0.767
45.7777 0.734
45.7943 0.707
45.8108 0.795
45.8274 0.712
45.8439 0.805
45.8605 0.822
45.8770 0.986
45.8936 0.899
45.9101 0.921
45.9266 0.953
45.9432 1.101
45.9597 0.937
45.9763 1.107
45.9928 1.249
46.0094 1.266
46.0259 1.315
46.0425 1.205
46.0590 1.079
46.0756 1.178
46.0921 1.074
46.1086 1.036
46.1252 0.992
46.1417 0.948
46.1583 0.926
46.1748 0.921
46.1914 0.937
46.2079 0.767
46.2245 0.778
46.2410 0.729
46.2575 0.762
46.2741 0.751
46.2906 0.740
46.3072 0.827
46.3237 0.849
46.3403 0.773
46.3568 0.893
46.3734 0.690
46.3899 0.658
46.4065 0.663
46.4230 0.707
46.4395 0.707
46.4561 0.679
46.4726 0.740
46.4892 0.833
46.5057 0.767
46.5223 0.751
46.5388 0.679
46.5554 0.701
46.5719 0.751
46.5885 0.668
46.6050 0.767
46.6215 0.767
46.6381 0.723
46.6546 0.789
46.6712 0.795
46.6877 0.789
46.7043 0.811
46.7208 0.718
46.7374 0.718
46.7539 0.740
46.7705 0.740
46.7870 0.816
46.8035 0.767
46.8201 0.679
46.8366 0.767
46.8532 0.942
46.8697 0.685
46.8863 0.756
46.9028 0.597
46.9194 0.701
46.9359 0.707
46.9525 0.751
46.9690 0.822
46.9855 0.636
47.0021 0.718
47.0186 0.707
47.0352 0.762
47.0517 0.636
47.0683 0.619
47.0848 0.679
47.1014 0.564
47.1179 0.658
47.1345 0.734
47.1510 0.619
47.1675 0.789
47.1841 0.690
47.2006 0.652
47.2172 0.647
47.2337 0.745
47.2503 0.696
47.2668 0.581
47.2834 0.658
47.2999 0.685
47.3165 0.729
47.3330 0.647
47.3495 0.707
47.3661 0.718
47.3826 0.663
47.3992 0.712
47.4157 0.811
47.4323 0.811
47.4488 0.734
47.4654 0.647
47.4819 0.734
47.4985 0.729
47.5150 0.668
47.5315 0.789
47.5481 0.784
47.5646 0.608
47.5812 0.674
47.5977 0.630
47.6143 0.658
47.6308 0.762
47.6474 0.696
47.6639 0.641
47.6805 0.641
47.6970 0.668
47.7135 0.690
47.7301 0.647
47.7466 0.685
47.7632 0.608
47.7797 0.685
47.7963 0.641
47.8128 0.647
47.8294 0.625
47.8459 0.718
47.8625 0.767
47.8790 0.767
47.8955 0.663
47.9121 0.636
47.9286 0.701
47.9452 0.636
47.9617 0.652
47.9783 0.707
47.9948 0.707
48.0114 0.614
48.0279 0.668
48.0445 0.663
48.0610 0.636
48.0775 0.696
48.0941 0.641
48.1106 0.679
48.1272 0.636
48.1437 0.712
48.1603 0.674
48.1768 0.795
48.1934 0.581
48.2099 0.674
48.2265 0.608
48.2430 0.701
48.2595 0.647
48.2761 0.745
48.2926 0.658
48.3092 0.668
48.3257 0.603
48.3423 0.575
48.3588 0.668
48.3754 0.690
48.3919 0.696
48.4085 0.674
48.4250 0.685
48.4415 0.707
48.4581 0.581
48.4746 0.608
48.4912 0.685
48.5077 0.685
48.5243 0.778
48.5408 0.647
48.5574 0.603
48.5739 0.586
48.5905 0.679
48.6070 0.723
48.6235 0.679
48.6401 0.603
48.6566 0.603
48.6732 0.575
48.6897 0.701
48.7063 0.674
48.7228 0.559
48.7394 0.608
48.7559 0.668
48.7725 0.619
48.7890 0.685
48.8055 0.581
48.8221 0.745
48.8386 0.690
48.8552 0.559
48.8717 0.575
48.8883 0.625
48.9048 0.636
48.9214 0.663
48.9379 0.597
48.9545 0.575
48.9710 0.548
48.9875 0.625
49.0041 0.751
49.0206 0.647
49.0372 0.608
49.0537 0.592
49.0703 0.608
49.0868 0.597
49.1034 0.619
49.1199 0.553
49.1364 0.647
49.1530 0.701
49.1695 0.597
49.1861 0.663
49.2026 0.745
49.2192 0.723
49.2357 0.652
49.2523 0.762
49.2688 0.537
49.2854 0.647
49.3019 0.619
49.3184 0.619
49.3350 0.685
49.3515 0.564
49.3681 0.630
49.3846 0.663
49.4012 0.548
49.4177 0.608
49.4343 0.581
49.4508 0.630
49.4674 0.685
49.4839 0.668
49.5004 0.575
49.5170 0.652
49.5335 0.647
49.5501 0.564
49.5666 0.581
49.5832 0.614
49.5997 0.619
49.6163 0.553
49.6328 0.553
49.6494 0.652
49.6659 0.592
49.6824 0.647
49.6990 0.658
49.7155 0.625
49.7321 0.581
49.7486 0.636
49.7652 0.619
49.7817 0.603
49.7983 0.729
49.8148 0.575
49.8314 0.586
49.8479 0.685
49.8644 0.603
49.8810 0.696
49.8975 0.630
49.9141 0.674
49.9306 0.630
49.9472 0.663
49.9637 0.789
49.9803 0.619
49.9968 0.575
50.0134 0.690
50.0299 0.603
50.0464 0.570
50.0630 0.619
50.0795 0.625
50.0961 0.685
50.1126 0.625
50.1292 0.603
50.1457 0.625
50.1623 0.636
50.1788 0.663
50.1954 0.532
50.2119 0.641
50.2284 0.630
50.2450 0.564
50.2615 0.668
50.2781 0.510
50.2946 0.636
50.3112 0.751
50.3277 0.493
50.3443 0.663
50.3608 0.521
50.3774 0.575
50.3939 0.701
50.4104 0.707
50.4270 0.641
50.4435 0.718
50.4601 0.822
50.4766 0.674
50.4932 0.625
50.5097 0.636
50.5263 0.614
50.5428 0.745
50.5594 0.636
50.5759 0.696
50.5924 0.592
50.6090 0.712
50.6255 0.707
50.6421 0.614
50.6586 0.745
50.6752 0.707
50.6917 0.707
50.7083 0.844
50.7248 0.729
50.7414 0.614
50.7579 0.553
50.7744 0.679
50.7910 0.701
50.8075 0.751
50.8241 0.625
50.8406 0.597
50.8572 0.740
50.8737 0.685
50.8903 0.811
50.9068 0.784
50.9234 0.707
50.9399 0.756
50.9564 0.773
50.9730 0.608
50.9895 0.690
51.0061 0.707
51.0226 0.767
51.0392 0.729
51.0557 0.778
51.0723 0.718
51.0888 0.740
51.1054 0.773
51.1219 0.707
51.1384 0.696
51.1550 0.718
51.1715 0.674
51.1881 0.723
51.2046 0.652
51.2212 0.690
51.2377 0.718
51.2543 0.778
51.2708 0.838
51.2874 0.805
51.3039 0.833
51.3204 0.756
51.3370 0.871
51.3535 0.740
51.3701 0.712
51.3866 0.652
51.4032 0.679
51.4197 0.718
51.4363 0.723
51.4528 0.762
51.4694 0.795
51.4859 0.729
51.5024 0.734
51.5190 0.838
51.5355 0.762
51.5521 0.740
51.5686 0.849
51.5852 0.800
51.6017 0.795
51.6183 0.707
51.6348 0.773
51.6514 0.800
51.6679 0.734
51.6844 0.849
51.7010 0.740
51.7175 0.827
51.7341 0.827
51.7506 0.937
51.7672 0.784
51.7837 0.745
51.8003 0.838
51.8168 0.888
51.8333 0.822
51.8499 0.953
51.8664 1.019
51.8830 1.008
51.8995 1.112
51.9161 1.008
51.9326 1.266
51.9492 1.238
51.9657 1.260
51.9823 1.468
51.9988 1.430
52.0153 1.627
52.0319 1.753
52.0484 1.688
52.0650 2.005
52.0815 2.307
52.0981 2.460
52.1146 2.751
52.1312 3.047
52.1477 3.227
52.1643 3.962
52.1808 4.323
52.1973 4.992
52.2139 5.693
52.2304 6.784
52.2470 7.940
52.2635 9.633
52.2801 11.260
52.2966 13.266
52.3132 16.071
52.3297 17.879
52.3463 19.764
52.3628 20.148
52.3793 19.962
52.3959 16.559
52.4124 14.504
52.4290 11.649
52.4455 11.490
52.4621 11.271
52.4786 10.855
52.4952 11.140
52.5117 9.945
52.5283 8.860
52.5448 7.222
52.5613 5.063
52.5779 4.016
52.5944 2.910
52.6110 2.575
52.6275 2.077
52.6441 1.830
52.6606 1.819
52.6772 1.671
52.6937 1.496
52.7103 1.337
52.7268 1.129
52.7433 1.025
52.7599 1.008
52.7764 1.112
52.7930 1.008
52.8095 1.036
52.8261 0.948
52.8426 0.860
52.8592 0.816
52.8757 0.937
52.8923 0.926
52.9088 0.849
52.9253 0.811
52.9419 0.882
52.9584 0.822
52.9750 0.827
52.9915 0.734
53.0081 0.707
53.0246 0.849
53.0412 0.833
53.0577 0.773
53.0743 0.795
53.0908 0.740
53.1073 0.647
53.1239 0.608
53.1404 0.712
53.1570 0.734
53.1735 0.773
53.1901 0.784
53.2066 0.630
53.2232 0.729
53.2397 0.619
53.2563 0.652
53.2728 0.795
53.2893 0.690
53.3059 0.668
53.3224 0.685
53.3390 0.740
53.3555 0.625
53.3721 0.658
53.3886 0.690
53.4052 0.658
53.4217 0.668
53.4383 0.685
53.4548 0.740
53.4713 0.723
53.4879 0.652
53.5044 0.674
53.5210 0.690
53.5375 0.630
53.5541 0.690
53.5706 0.542
53.5872 0.696
53.6037 0.718
53.6203 0.707
53.6368 0.619
53.6533 0.532
53.6699 0.581
53.6864 0.668
53.7030 0.625
53.7195 0.641
53.7361 0.608
53.7526 0.581
53.7692 0.712
53.7857 0.581
53.8023 0.625
53.8188 0.652
53.8353 0.641
53.8519 0.542
53.8684 0.614
53.8850 0.592
53.9015 0.537
53.9181 0.663
53.9346 0.570
53.9512 0.603
53.9677 0.647
53.9843 0.696
54.0008 0.647
54.0173 0.625
54.0339 0.581
54.0504 0.619
54.0670 0.504
54.0835 0.608
54.1001 0.690
54.1166 0.614
54.1332 0.559
54.1497 0.553
54.1663 0.619
54.1828 0.564
54.1993 0.652
54.2159 0.586
54.2324 0.581
54.2490 0.625
54.2655 0.603
54.2821 0.647
54.2986 0.570
54.3152 0.581
54.3317 0.647
54.3483 0.674
54.3648 0.619
54.3813 0.630
54.3979 0.586
54.4144 0.581
54.4310 0.608
54.4475 0.679
54.4641 0.548
54.4806 0.581
54.4972 0.658
54.5137 0.592
54.5302 0.570
54.5468 0.690
54.5633 0.619
54.5799 0.625
54.5964 0.734
54.6130 0.526
54.6295 0.542
54.6461 0.767
54.6626 0.608
54.6792 0.625
54.6957 0.597
54.7122 0.603
54.7288 0.619
54.7453 0.608
54.7619 0.625
54.7784 0.630
54.7950 0.679
54.8115 0.542
54.8281 0.603
54.8446 0.679
54.8612 0.537
54.8777 0.575
54.8942 0.603
54.9108 0.564
54.9273 0.614
54.9439 0.690
54.9604 0.663
54.9770 0.575
54.9935 0.685
55.0101 0.701
55.0266 0.712
55.0432 0.652
55.0597 0.603
55.0762 0.625
55.0928 0.685
55.1093 0.597
55.1259 0.745
55.1424 0.723
55.1590 0.789
55.1755 0.707
55.1921 0.668
55.2086 0.625
55.2252 0.685
55.2417 0.723
55.2582 0.762
55.2748 0.729
55.2913 0.625
55.3079 0.679
55.3244 0.647
55.3410 0.663
55.3575 0.718
55.3741 0.860
55.3906 0.679
55.4072 0.614
55.4237 0.663
55.4402 0.745
55.4568 0.690
55.4733 0.701
55.4899 0.756
55.5064 0.734
55.5230 0.652
55.5395 0.685
55.5561 0.701
55.5726 0.608
55.5892 0.805
55.6057 0.734
55.6222 0.767
55.6388 0.652
55.6553 0.745
55.6719 0.674
55.6884 0.767
55.7050 0.690
55.7215 0.718
55.7381 0.784
55.7546 0.663
55.7712 0.773
55.7877 0.762
55.8042 0.773
55.8208 0.778
55.8373 0.767
55.8539 0.778
55.8704 0.734
55.8870 0.652
55.9035 0.701
55.9201 0.762
55.9366 0.795
55.9532 0.723
55.9697 0.679
55.9862 0.740
56.0028 0.663
56.0193 0.636
56.0359 0.778
56.0524 0.734
56.0690 0.658
56.0855 0.762
56.1021 0.778
56.1186 0.729
56.1352 0.827
56.1517 0.734
56.1682 0.751
56.1848 0.811
56.2013 0.762
56.2179 0.696
56.2344 0.723
56.2510 0.827
56.2675 0.658
56.2841 0.816
56.3006 0.773
56.3172 0.658
56.3337 0.838
56.3502 0.795
56.3668 0.888
56.3833 0.899
56.3999 0.816
56.4164 0.789
56.4330 0.893
56.4495 0.849
56.4661 0.926
56.4826 0.795
56.4992 0.767
56.5157 0.740
56.5322 0.932
56.5488 1.063
56.5653 0.932
56.5819 0.882
56.5984 0.904
56.6150 0.975
56.6315 0.997
56.6481 0.981
56.6646 1.058
56.6812 0.992
56.6977 1.184
56.7142 1.096
56.7308 1.145
56.7473 1.129
56.7639 1.200
56.7804 1.255
56.7970 1.353
56.8135 1.468
56.8301 1.370
56.8466 1.732
56.8632 1.567
56.8797 2.022
56.8962 2.071
56.9128 2.219
56.9293 2.356
56.9459 2.674
56.9624 3.123
56.9790 3.244
56.9955 3.874
57.0121 4.000
57.0286 4.849
57.0452 5.184
57.0617 6.049
57.0782 6.729
57.0948 7.616
57.1113 9.008
57.1279 10.411
57.1444 12.192
57.1610 14.022
57.1775 16.816
57.1941 20.575
57.2106 24.016
57.2272 27.934
57.2437 32.466
57.2602 35.830
57.2768 37.699
57.2933 37.545
57.3099 34.132
57.3264 29.156
57.3430 24.038
57.3595 20.521
57.3761 19.616
57.3926 19.310
57.4091 20.153
57.4257 20.082
57.4422 19.145
57.4588 17.715
57.4753 13.874
57.4919 10.959
57.5084 8.181
57.5250 5.600
57.5415 4.603
57.5581 3.490
57.5746 3.025
57.5911 2.658
57.6077 2.411
57.6242 2.175
57.6408 1.973
57.6573 1.737
57.6739 1.518
57.6904 1.578
57.7070 1.463
57.7235 1.364
57.7401 1.441
57.7566 1.337
57.7731 1.184
57.7897 1.151
57.8062 1.101
57.8228 1.090
57.8393 1.052
57.8559 1.074
57.8724 1.058
57.8890 1.014
57.9055 1.014
57.9221 0.844
57.9386 1.041
57.9551 0.915
57.9717 0.778
57.9882 0.816
58.0048 0.773
58.0213 0.795
58.0379 0.970
58.0544 0.784
58.0710 0.866
58.0875 0.795
58.1041 0.871
58.1206 0.729
58.1371 0.811
58.1537 0.712
58.1702 0.882
58.1868 0.795
58.2033 0.849
58.2199 0.932
58.2364 0.860
58.2530 0.795
58.2695 0.795
58.2861 0.767
58.3026 0.745
58.3191 0.745
58.3357 0.734
58.3522 0.652
58.3688 0.778
58.3853 0.630
58.4019 0.603
58.4184 0.690
58.4350 0.696
58.4515 0.767
58.4681 0.564
58.4846 0.767
58.5011 0.712
58.5177 0.658
58.5342 0.674
58.5508 0.619
58.5673 0.679
58.5839 0.603
58.6004 0.652
58.6170 0.756
58.6335 0.619
58.6501 0.592
58.6666 0.679
58.6831 0.745
58.6997 0.575
58.7162 0.773
58.7328 0.712
58.7493 0.674
58.7659 0.674
58.7824 0.663
58.7990 0.679
58.8155 0.723
58.8321 0.537
58.8486 0.658
58.8651 0.564
58.8817 0.663
58.8982 0.690
58.9148 0.712
58.9313 0.707
58.9479 0.723
58.9644 0.614
58.9810 0.641
58.9975 0.647
59.0141 0.608
59.0306 0.668
59.0471 0.663
59.0637 0.674
59.0802 0.723
59.0968 0.636
59.1133 0.800
59.1299 0.641
59.1464 0.784
59.1630 0.729
59.1795 0.548
59.1961 0.827
59.2126 0.614
59.2291 0.756
59.2457 0.800
59.2622 0.641
59.2788 0.745
59.2953 0.679
59.3119 0.789
59.3284 0.663
59.3450 0.827
59.3615 0.745
59.3781 0.992
59.3946 0.948
59.4111 1.107
59.4277 1.047
59.4442 1.205
59.4608 1.255
59.4773 1.370
59.4939 1.633
59.5104 1.490
59.5270 1.584
59.5435 1.644
59.5601 1.375
59.5766 1.375
59.5931 1.123
59.6097 0.986
59.6262 1.085
59.6428 1.041
59.6593 1.014
59.6759 1.184
59.6924 1.019
59.7090 0.888
59.7255 0.844
59.7421 0.833
59.7586 0.833
59.7751 0.679
59.7917 0.679
59.8082 0.718
59.8248 0.663
59.8413 0.789
59.8579 0.592
59.8744 0.510
59.8910 0.674
59.9075 0.581
59.9241 0.652
59.9406 0.652
59.9571 0.696
59.9737 0.668
59.9902 0.723
60.0068 0.532
60.0233 0.521
60.0399 0.625
60.0564 0.581
60.0730 0.674
60.0895 0.526
60.1060 0.630
60.1226 0.592
60.1391 0.608
60.1557 0.586
60.1722 0.679
60.1888 0.674
60.2053 0.575
60.2219 0.652
60.2384 0.641
60.2550 0.548
60.2715 0.553
60.2880 0.553
60.3046 0.658
60.3211 0.597
60.3377 0.652
60.3542 0.564
60.3708 0.647
60.3873 0.789
60.4039 0.740
60.4204 0.723
60.4370 0.718
60.4535 0.663
60.4700 0.597
60.4866 0.756
60.5031 0.734
60.5197 0.559
60.5362 0.723
60.5528 0.718
60.5693 0.800
60.5859 0.756
60.6024 0.762
60.6190 0.822
60.6355 0.838
60.6520 0.904
60.6686 0.866
60.6851 0.893
60.7017 1.025
60.7182 1.085
60.7348 1.162
60.7513 1.233
60.7679 1.200
60.7844 1.348
60.8010 1.326
60.8175 1.397
60.8340 1.825
60.8506 1.847
60.8671 2.055
60.8837 2.471
60.9002 2.268
60.9168 2.663
60.9333 2.674
60.9499 2.679
60.9664 2.932
60.9830 2.893
60.9995 3.436
61.0160 3.392
61.0326 3.655
61.0491 4.279
61.0657 4.099
61.0822 3.874
61.0988 3.205
61.1153 3.030
61.1319 2.564
61.1484 1.995
61.1650 1.868
61.1815 1.868
61.1980 2.197
61.2146 2.044
61.2311 1.945
61.2477 2.027
61.2642 1.688
61.2808 1.463
61.2973 1.151
61.3139 0.904
61.3304 0.789
61.3470 0.849
61.3635 0.827
61.3800 0.734
61.3966 0.674
61.4131 0.723
61.4297 0.740
61.4462 0.614
61.4628 0.718
61.4793 0.575
61.4959 0.718
61.5124 0.548
61.5290 0.597
61.5455 0.575
61.5620 0.668
61.5786 0.652
61.5951 0.581
61.6117 0.504
61.6282 0.570
61.6448 0.614
61.6613 0.614
61.6779 0.537
61.6944 0.559
61.7110 0.570
61.7275 0.625
61.7440 0.592
61.7606 0.532
61.7771 0.658
61.7937 0.542
61.8102 0.499
61.8268 0.608
61.8433 0.548
61.8599 0.564
61.8764 0.559
61.8930 0.581
61.9095 0.564
61.9260 0.515
61.9426 0.608
61.9591 0.532
61.9757 0.597
61.9922 0.608
62.0088 0.636
62.0253 0.559
62.0419 0.581
62.0584 0.537
62.0750 0.521
62.0915 0.581
62.1080 0.575
62.1246 0.575
62.1411 0.668
62.1577 0.510
62.1742 0.592
62.1908 0.444
62.2073 0.548
62.2239 0.542
62.2404 0.444
62.2570 0.537
62.2735 0.548
62.2900 0.597
62.3066 0.548
62.3231 0.510
62.3397 0.597
62.3562 0.586
62.3728 0.553
62.3893 0.532
62.4059 0.504
62.4224 0.477
62.4390 0.521
62.4555 0.575
62.4720 0.471
62.4886 0.548
62.5051 0.526
62.5217 0.477
62.5382 0.603
62.5548 0.515
62.5713 0.625
62.5879 0.515
62.6044 0.499
62.6210 0.559
62.6375 0.526
62.6540 0.575
62.6706 0.460
62.6871 0.553
62.7037 0.614
62.7202 0.537
62.7368 0.542
62.7533 0.521
62.7699 0.466
62.7864 0.548
62.8029 0.570
62.8195 0.510
62.8360 0.466
62.8526 0.510
62.8691 0.542
62.8857 0.597
62.9022 0.537
62.9188 0.499
62.9353 0.482
62.9519 0.499
62.9684 0.395
62.9849 0.433
63.0015 0.510
63.0180 0.575
63.0346 0.504
63.0511 0.608
63.0677 0.482
63.0842 0.542
63.1008 0.449
63.1173 0.553
63.1339 0.575
63.1504 0.471
63.1669 0.542
63.1835 0.537
63.2000 0.570
63.2166 0.592
63.2331 0.575
63.2497 0.477
63.2662 0.510
63.2828 0.559
63.2993 0.570
63.3159 0.471
63.3324 0.542
63.3489 0.515
63.3655 0.504
63.3820 0.526
63.3986 0.532
63.4151 0.521
63.4317 0.559
63.4482 0.614
63.4648 0.581
63.4813 0.625
63.4979 0.493
63.5144 0.521
63.5309 0.608
63.5475 0.614
63.5640 0.553
63.5806 0.542
63.5971 0.553
63.6137 0.548
63.6302 0.493
63.6468 0.532
63.6633 0.564
63.6799 0.537
63.6964 0.521
63.7129 0.521
63.7295 0.537
63.7460 0.526
63.7626 0.575
63.7791 0.477
63.7957 0.625
63.8122 0.433
63.8288 0.564
63.8453 0.460
63.8619 0.526
63.8784 0.493
63.8949 0.652
63.9115 0.532
63.9280 0.564
63.9446 0.636
63.9611 0.499
63.9777 0.614
63.9942 0.449
64.0108 0.526
64.0273 0.510
64.0439 0.526
64.0604 0.630
64.0769 0.542
64.0935 0.488
64.1100 0.559
64.1266 0.515
64.1431 0.592
64.1597 0.619
64.1762 0.581
64.1928 0.586
64.2093 0.597
64.2259 0.559
64.2424 0.570
64.2589 0.521
64.2755 0.652
64.2920 0.575
64.3086 0.553
64.3251 0.559
64.3417 0.521
64.3582 0.641
64.3748 0.477
64.3913 0.570
64.4079 0.575
64.4244 0.586
64.4409 0.488
64.4575 0.564
64.4740 0.537
64.4906 0.652
64.5071 0.515
64.5237 0.581
64.5402 0.548
64.5568 0.608
64.5733 0.608
64.5899 0.614
64.6064 0.592
64.6229 0.575
64.6395 0.548
64.6560 0.504
64.6726 0.553
64.6891 0.521
64.7057 0.575
64.7222 0.553
64.7388 0.592
64.7553 0.553
64.7719 0.548
64.7884 0.570
64.8049 0.521
64.8215 0.553
64.8380 0.581
64.8546 0.504
64.8711 0.586
64.8877 0.553
64.9042 0.488
64.9208 0.482
64.9373 0.564
64.9539 0.553
64.9704 0.510
64.9869 0.581
65.0035 0.581
65.0200 0.532
65.0366 0.548
65.0531 0.510
65.0697 0.553
65.0862 0.444
65.1028 0.471
65.1193 0.641
65.1359 0.575
65.1524 0.449
65.1689 0.553
65.1855 0.581
65.2020 0.652
65.2186 0.619
65.2351 0.614
65.2517 0.658
65.2682 0.647
65.2848 0.696
65.3013 0.564
65.3179 0.559
65.3344 0.575
65.3509 0.597
65.3675 0.625
65.3840 0.570
65.4006 0.603
65.4171 0.674
65.4337 0.685
65.4502 0.630
65.4668 0.729
65.4833 0.701
65.4999 0.707
65.5164 0.701
65.5329 0.652
65.5495 0.647
65.5660 0.800
65.5826 0.767
65.5991 0.784
65.6157 0.756
65.6322 0.707
65.6488 0.773
65.6653 0.833
65.6818 0.778
65.6984 0.849
65.7149 0.729
65.7315 0.915
65.7480 0.921
65.7646 0.778
65.7811 0.964
65.7977 0.964
65.8142 0.975
65.8308 0.959
65.8473 1.184
65.8638 1.074
65.8804 1.216
65.8969 1.255
65.9135 1.370
65.9300 1.392
65.9466 1.479
65.9631 1.984
65.9797 1.797
65.9962 1.912
66.0128 2.197
66.0293 2.405
66.0458 2.789
66.0624 3.107
66.0789 3.156
66.0955 3.819
66.1120 4.203
66.1286 5.030
66.1451 5.885
66.1617 6.773
66.1782 7.923
66.1948 9.184
66.2113 10.526
66.2278 11.397
66.2444 13.222
66.2609 13.808
66.2775 13.375
66.2940 12.416
66.3106 10.027
66.3271 8.877
66.3437 7.386
66.3602 6.756
66.3768 6.356
66.3933 6.603
66.4098 6.904
66.4264 7.512
66.4429 7.244
66.4595 7.167
66.4760 6.296
66.4926 5.353
66.5091 4.236
66.5257 3.238
66.5422 2.477
66.5588 2.323
66.5753 1.836
66.5918 1.671
66.6084 1.556
66.6249 1.353
66.6415 1.266
66.6580 1.123
66.6746 1.123
66.6911 0.937
66.7077 0.970
66.7242 0.970
66.7408 1.003
66.7573 1.074
66.7738 0.915
66.7904 0.926
66.8069 0.910
66.8235 0.877
66.8400 0.778
66.8566 0.888
66.8731 0.805
66.8897 0.811
66.9062 0.767
66.9228 0.953
66.9393 0.893
66.9558 0.701
66.9724 0.784
66.9889 0.844
67.0055 0.844
67.0220 0.773
67.0386 0.751
67.0551 0.751
67.0717 0.849
67.0882 0.767
67.1048 0.910
67.1213 0.745
67.1378 0.729
67.1544 0.696
67.1709 0.877
67.1875 0.849
67.2040 0.636
67.2206 0.729
67.2371 0.888
67.2537 0.833
67.2702 0.816
67.2868 0.740
67.3033 0.986
67.3198 0.981
67.3364 0.948
67.3529 0.877
67.3695 0.948
67.3860 0.805
67.4026 0.970
67.4191 1.025
67.4357 0.992
67.4522 1.299
67.4688 0.937
67.4853 1.271
67.5018 1.178
67.5184 1.205
67.5349 1.381
67.5515 1.452
67.5680 1.644
67.5846 1.666
67.6011 1.655
67.6177 1.660
67.6342 2.044
67.6508 2.148
67.6673 2.230
67.6838 2.756
67.7004 3.019
67.7169 3.332
67.7335 3.633
67.7500 4.208
67.7666 4.904
67.7831 5.353
67.7997 6.022
67.8162 6.893
67.8328 8.405
67.8493 9.458
67.8658 11.463
67.8824 13.452
67.8989 15.699
67.9155 17.348
67.9320 19.266
67.9486 20.170
67.9651 20.027
67.9817 17.589
67.9982 15.403
68.0148 12.356
68.0313 10.356
68.0478 9.014
68.0644 9.326
68.0809 9.216
68.0975 9.529
68.1140 10.542
68.1306 11.030
68.1471 10.186
68.1637 9.441
68.1802 7.841
68.1968 6.658
68.2133 5.030
68.2298 3.901
68.2464 2.816
68.2629 2.411
68.2795 1.940
68.2960 1.967
68.3126 1.458
68.3291 1.578
68.3457 1.490
68.3622 1.079
68.3787 1.260
68.3953 1.123
68.4118 1.003
68.4284 1.014
68.4449 0.899
68.4615 0.964
68.4780 0.926
68.4946 0.811
68.5111 0.795
68.5277 0.805
68.5442 0.932
68.5607 0.784
68.5773 0.762
68.5938 0.893
68.6104 0.745
68.6269 0.652
68.6435 0.718
68.6600 0.564
68.6766 0.537
68.6931 0.696
68.7097 0.701
68.7262 0.608
68.7427 0.712
68.7593 0.756
68.7758 0.718
68.7924 0.658
68.8089 0.493
68.8255 0.679
68.8420 0.581
68.8586 0.658
68.8751 0.608
68.8917 0.658
68.9082 0.652
68.9247 0.559
68.9413 0.559
68.9578 0.625
68.9744 0.668
68.9909 0.668
69.0075 0.674
69.0240 0.625
69.0406 0.526
69.0571 0.542
69.0737 0.581
69.0902 0.581
69.1067 0.559
69.1233 0.603
69.1398 0.532
69.1564 0.460
69.1729 0.685
69.1895 0.597
69.2060 0.625
69.2226 0.581
69.2391 0.592
69.2557 0.537
69.2722 0.444
69.2887 0.559
69.3053 0.570
69.3218 0.658
69.3384 0.515
69.3549 0.477
69.3715 0.537
69.3880 0.471
69.4046 0.521
69.4211 0.471
69.4377 0.477
69.4542 0.455
69.4707 0.553
69.4873 0.532
69.5038 0.477
69.5204 0.521
69.5369 0.521
69.5535 0.521
69.5700 0.575
69.5866 0.553
69.6031 0.532
69.6197 0.466
69.6362 0.488
69.6527 0.510
69.6693 0.625
69.6858 0.532
69.7024 0.493
69.7189 0.521
69.7355 0.581
69.7520 0.564
69.7686 0.515
69.7851 0.586
69.8017 0.499
69.8182 0.526
69.8347 0.537
69.8513 0.581
69.8678 0.493
69.8844 0.608
69.9009 0.532
69.9175 0.641
69.9340 0.570
69.9506 0.663
69.9671 0.570
69.9837 0.597
70.0002 0.685
