'Id: "" Comment: "" Operator: "Administrator" Anode: "Cu" Scantype: "Locked Coupled" TimePerStep: "182.5" X: "0" Y: "0" Z: "0" 
20.0000 2.734
20.0165 2.871
20.0331 2.570
20.0496 2.942
20.0662 2.833
20.0827 2.948
20.0993 2.937
20.1158 2.712
20.1324 2.800
20.1489 2.625
20.1655 2.816
20.1820 2.707
20.1985 2.619
20.2151 2.729
20.2316 2.866
20.2482 2.805
20.2647 2.778
20.2813 2.712
20.2978 2.652
20.3144 2.921
20.3309 2.773
20.3475 2.937
20.3640 2.789
20.3805 2.625
20.3971 2.581
20.4136 2.663
20.4302 2.630
20.4467 2.756
20.4633 2.893
20.4798 2.488
20.4964 2.740
20.5129 2.718
20.5295 2.773
20.5460 2.647
20.5625 2.630
20.5791 2.712
20.5956 2.762
20.6122 2.592
20.6287 2.542
20.6453 2.597
20.6618 2.575
20.6784 2.619
20.6949 2.559
20.7115 2.696
20.7280 2.712
20.7445 2.504
20.7611 2.575
20.7776 2.658
20.7942 2.510
20.8107 2.510
20.8273 2.636
20.8438 2.701
20.8604 2.630
20.8769 2.471
20.8935 2.542
20.9100 2.696
20.9265 2.581
20.9431 2.433
20.9596 2.526
20.9762 2.515
20.9927 2.625
21.0093 2.723
21.0258 2.389
21.0424 2.345
21.0589 2.679
21.0755 2.575
21.0920 2.477
21.1085 2.838
21.1251 2.537
21.1416 2.608
21.1582 2.564
21.1747 2.740
21.1913 2.581
21.2078 2.778
21.2244 2.559
21.2409 2.701
21.2575 2.603
21.2740 2.784
21.2905 2.608
21.3071 2.641
21.3236 2.510
21.3402 2.614
21.3567 2.504
21.3733 2.537
21.3898 2.307
21.4064 2.422
21.4229 2.647
21.4394 2.630
21.4560 2.701
21.4725 2.838
21.4891 2.619
21.5056 2.789
21.5222 2.482
21.5387 2.718
21.5553 2.510
21.5718 2.614
21.5884 2.466
21.6049 2.449
21.6214 2.455
21.6380 2.668
21.6545 2.608
21.6711 2.723
21.6876 2.521
21.7042 2.745
21.7207 2.482
21.7373 2.625
21.7538 2.652
21.7704 2.668
21.7869 2.603
21.8034 2.542
21.8200 2.548
21.8365 2.521
21.8531 2.493
21.8696 2.455
21.8862 2.405
21.9027 2.636
21.9193 2.499
21.9358 2.548
21.9524 2.679
21.9689 2.548
21.9854 2.630
22.0020 2.707
22.0185 2.444
22.0351 2.548
22.0516 2.378
22.0682 2.373
22.0847 2.641
22.1013 2.630
22.1178 2.444
22.1344 2.553
22.1509 2.340
22.1674 2.499
22.1840 2.384
22.2005 2.592
22.2171 2.504
22.2336 2.433
22.2502 2.482
22.2667 2.389
22.2833 2.219
22.2998 2.384
22.3164 2.208
22.3329 2.466
22.3494 2.378
22.3660 2.175
22.3825 2.515
22.3991 2.312
22.4156 2.323
22.4322 2.236
22.4487 2.263
22.4653 2.373
22.4818 2.575
22.4984 2.329
22.5149 2.362
22.5314 2.203
22.5480 2.225
22.5645 2.493
22.5811 2.449
22.5976 2.268
22.6142 2.362
22.6307 2.285
22.6473 2.323
22.6638 2.225
22.6804 2.433
22.6969 2.159
22.7134 2.362
22.7300 2.510
22.7465 2.367
22.7631 2.460
22.7796 2.312
22.7962 2.258
22.8127 2.110
22.8293 2.301
22.8458 2.175
22.8624 2.208
22.8789 2.395
22.8954 2.466
22.9120 2.219
22.9285 2.537
22.9451 2.373
22.9616 2.515
22.9782 2.318
22.9947 2.258
23.0113 2.373
23.0278 2.570
23.0444 2.400
23.0609 2.279
23.0774 2.466
23.0940 2.318
23.1105 2.268
23.1271 2.208
23.1436 2.329
23.1602 2.126
23.1767 2.268
23.1933 2.268
23.2098 2.203
23.2264 2.323
23.2429 2.296
23.2594 2.274
23.2760 2.378
23.2925 2.208
23.3091 2.471
23.3256 2.203
23.3422 2.104
23.3587 2.268
23.3753 2.186
23.3918 2.340
23.4084 2.060
23.4249 2.219
23.4414 2.181
23.4580 2.301
23.4745 2.093
23.4911 2.197
23.5076 2.345
23.5242 2.175
23.5407 2.230
23.5573 2.274
23.5738 2.230
23.5904 1.934
23.6069 2.214
23.6234 2.252
23.6400 2.197
23.6565 2.110
23.6731 2.438
23.6896 2.230
23.7062 2.455
23.7227 2.395
23.7393 2.334
23.7558 2.323
23.7724 2.416
23.7889 2.340
23.8054 2.405
23.8220 2.405
23.8385 2.597
23.8551 2.438
23.8716 2.526
23.8882 2.378
23.9047 2.559
23.9213 2.378
23.9378 2.641
23.9544 2.553
23.9709 2.290
23.9874 2.296
24.0040 2.510
24.0205 2.586
24.0371 2.460
24.0536 2.482
24.0702 2.427
24.0867 2.433
24.1033 2.745
24.1198 2.756
24.1364 2.608
24.1529 2.499
24.1694 2.690
24.1860 2.460
24.2025 2.745
24.2191 2.789
24.2356 2.871
24.2522 2.827
24.2687 2.838
24.2853 2.356
24.3018 2.778
24.3183 2.800
24.3349 2.679
24.3514 2.608
24.3680 2.619
24.3845 2.564
24.4011 2.723
24.4176 2.526
24.4342 2.641
24.4507 2.625
24.4673 2.652
24.4838 2.729
24.5003 2.833
24.5169 2.795
24.5334 2.729
24.5500 2.816
24.5665 3.008
24.5831 2.630
24.5996 2.767
24.6162 2.992
24.6327 2.668
24.6493 2.877
24.6658 2.948
24.6823 2.838
24.6989 2.800
24.7154 2.674
24.7320 2.811
24.7485 2.751
24.7651 2.773
24.7816 2.658
24.7982 2.805
24.8147 2.800
24.8313 2.910
24.8478 3.068
24.8643 2.953
24.8809 2.778
24.8974 2.888
24.9140 2.805
24.9305 2.893
24.9471 2.729
24.9636 2.986
24.9802 2.751
24.9967 2.964
25.0133 3.123
25.0298 3.068
25.0463 3.030
25.0629 2.970
25.0794 2.888
25.0960 3.085
25.1125 3.140
25.1291 2.789
25.1456 3.085
25.1622 2.805
25.1787 2.921
25.1953 3.036
25.2118 3.342
25.2283 3.058
25.2449 3.534
25.2614 3.458
25.2780 3.638
25.2945 3.704
25.3111 3.852
25.3276 4.301
25.3442 4.460
25.3607 4.904
25.3773 5.381
25.3938 5.863
25.4103 6.712
25.4269 7.600
25.4434 9.074
25.4600 10.707
25.4765 13.140
25.4931 16.000
25.5096 19.984
25.5262 24.351
25.5427 30.789
25.5593 35.047
25.5758 37.184
25.5923 35.934
25.6089 32.816
25.6254 28.055
25.6420 25.315
25.6585 19.742
25.6751 15.304
25.6916 11.200
25.7082 8.685
25.7247 6.981
25.7413 5.359
25.7578 4.515
25.7743 3.742
25.7909 3.721
25.8074 3.605
25.8240 3.222
25.8405 3.107
25.8571 3.019
25.8736 3.019
25.8902 2.893
25.9067 2.773
25.9233 2.899
25.9398 2.696
25.9563 2.745
25.9729 2.871
25.9894 2.882
26.0060 2.548
26.0225 2.526
26.0391 2.668
26.0556 2.690
26.0722 2.690
26.0887 2.603
26.1053 2.619
26.1218 2.800
26.1383 2.619
26.1549 2.334
26.1714 2.471
26.1880 2.290
26.2045 2.433
26.2211 2.559
26.2376 2.230
26.2542 2.373
26.2707 2.499
26.2873 2.422
26.3038 2.296
26.3203 2.241
26.3369 2.482
26.3534 2.422
26.3700 2.499
26.3865 2.214
26.4031 2.334
26.4196 2.263
26.4362 2.323
26.4527 2.356
26.4693 2.290
26.4858 2.104
26.5023 2.203
26.5189 2.258
26.5354 2.482
26.5520 2.219
26.5685 2.137
26.5851 2.164
26.6016 2.159
26.6182 2.340
26.6347 2.219
26.6513 2.274
26.6678 2.132
26.6843 2.258
26.7009 2.301
26.7174 2.197
26.7340 2.268
26.7505 2.318
26.7671 2.159
26.7836 2.290
26.8002 2.175
26.8167 2.285
26.8333 2.247
26.8498 2.132
26.8663 2.422
26.8829 2.208
26.8994 2.115
26.9160 2.225
26.9325 2.153
26.9491 2.219
26.9656 2.088
26.9822 2.181
26.9987 2.049
27.0152 2.088
27.0318 1.907
27.0483 2.104
27.0649 2.148
27.0814 2.016
27.0980 2.334
27.1145 2.016
27.1311 2.181
27.1476 2.027
27.1642 2.082
27.1807 2.142
27.1972 2.121
27.2138 1.896
27.2303 2.099
27.2469 2.110
27.2634 2.066
27.2800 2.236
27.2965 2.148
27.3131 1.879
27.3296 2.181
27.3462 2.279
27.3627 2.077
27.3792 2.066
27.3958 2.060
27.4123 1.945
27.4289 1.868
27.4454 2.121
27.4620 2.000
27.4785 2.153
27.4951 2.016
27.5116 2.225
27.5282 2.016
27.5447 2.038
27.5612 1.929
27.5778 2.033
27.5943 2.181
27.6109 2.027
27.6274 1.973
27.6440 2.137
27.6605 2.016
27.6771 2.132
27.6936 2.027
27.7102 2.000
27.7267 2.088
27.7432 1.907
27.7598 2.175
27.7763 1.945
27.7929 1.868
27.8094 2.022
27.8260 1.896
27.8425 2.022
27.8591 1.951
27.8756 2.005
27.8922 1.956
27.9087 1.858
27.9252 1.759
27.9418 1.819
27.9583 1.819
27.9749 1.940
27.9914 1.956
28.0080 2.104
28.0245 1.934
28.0411 1.901
28.0576 1.890
28.0742 1.912
28.0907 1.934
28.1072 1.819
28.1238 1.863
28.1403 1.808
28.1569 1.764
28.1734 1.742
28.1900 1.803
28.2065 1.764
28.2231 1.512
28.2396 1.797
28.2562 1.710
28.2727 1.858
28.2892 1.732
28.3058 1.792
28.3223 1.868
28.3389 1.721
28.3554 1.918
28.3720 1.797
28.3885 1.764
28.4051 1.584
28.4216 1.770
28.4382 1.764
28.4547 1.737
28.4712 1.611
28.4878 1.879
28.5043 1.688
28.5209 1.622
28.5374 1.666
28.5540 1.704
28.5705 1.655
28.5871 1.633
28.6036 1.808
28.6202 1.868
28.6367 1.660
28.6532 1.627
28.6698 1.874
28.6863 1.529
28.7029 1.737
28.7194 1.775
28.7360 1.874
28.7525 1.803
28.7691 1.655
28.7856 1.666
28.8022 1.419
28.8187 1.611
28.8352 1.671
28.8518 1.688
28.8683 1.512
28.8849 1.748
28.9014 1.578
28.9180 1.726
28.9345 1.534
28.9511 1.726
28.9676 1.644
28.9842 1.726
29.0007 1.759
29.0172 1.523
29.0338 1.425
29.0503 1.627
29.0669 1.600
29.0834 1.551
29.1000 1.622
29.1165 1.627
29.1331 1.605
29.1496 1.710
29.1662 1.677
29.1827 1.808
29.1992 1.545
29.2158 1.638
29.2323 1.523
29.2489 1.627
29.2654 1.589
29.2820 1.704
29.2985 1.644
29.3151 1.573
29.3316 1.742
29.3482 1.715
29.3647 1.518
29.3812 1.649
29.3978 1.644
29.4143 1.649
29.4309 1.518
29.4474 1.419
29.4640 1.523
29.4805 1.644
29.4971 1.562
29.5136 1.726
29.5302 1.562
29.5467 1.611
29.5632 1.688
29.5798 1.589
29.5963 1.501
29.6129 1.534
29.6294 1.677
29.6460 1.485
29.6625 1.518
29.6791 1.589
29.6956 1.419
29.7121 1.562
29.7287 1.540
29.7452 1.573
29.7618 1.496
29.7783 1.693
29.7949 1.551
29.8114 1.562
29.8280 1.447
29.8445 1.600
29.8611 1.496
29.8776 1.496
29.8941 1.523
29.9107 1.392
29.9272 1.507
29.9438 1.463
29.9603 1.556
29.9769 1.353
29.9934 1.337
30.0100 1.430
30.0265 1.397
30.0431 1.474
30.0596 1.545
30.0761 1.430
30.0927 1.271
30.1092 1.458
30.1258 1.425
30.1423 1.567
30.1589 1.605
30.1754 1.386
30.1920 1.595
30.2085 1.348
30.2251 1.381
30.2416 1.523
30.2581 1.447
30.2747 1.321
30.2912 1.540
30.3078 1.501
30.3243 1.260
30.3409 1.392
30.3574 1.238
30.3740 1.649
30.3905 1.386
30.4071 1.584
30.4236 1.414
30.4401 1.556
30.4567 1.600
30.4732 1.479
30.4898 1.441
30.5063 1.468
30.5229 1.474
30.5394 1.310
30.5560 1.490
30.5725 1.337
30.5891 1.386
30.6056 1.638
30.6221 1.293
30.6387 1.441
30.6552 1.441
30.6718 1.419
30.6883 1.523
30.7049 1.419
30.7214 1.321
30.7380 1.364
30.7545 1.255
30.7711 1.447
30.7876 1.370
30.8041 1.332
30.8207 1.381
30.8372 1.463
30.8538 1.419
30.8703 1.321
30.8869 1.326
30.9034 1.288
30.9200 1.266
30.9365 1.211
30.9531 1.189
30.9696 1.332
30.9861 1.518
31.0027 1.348
31.0192 1.479
31.0358 1.266
31.0523 1.277
31.0689 1.216
31.0854 1.282
31.1020 1.205
31.1185 1.436
31.1351 1.364
31.1516 1.507
31.1681 1.671
31.1847 1.260
31.2012 1.216
31.2178 1.310
31.2343 1.370
31.2509 1.277
31.2674 1.397
31.2840 1.293
31.3005 1.145
31.3171 1.342
31.3336 1.271
31.3501 1.326
31.3667 1.079
31.3832 1.293
31.3998 1.233
31.4163 1.403
31.4329 1.342
31.4494 1.337
31.4660 1.332
31.4825 1.288
31.4991 1.277
31.5156 1.490
31.5321 1.266
31.5487 1.216
31.5652 1.173
31.5818 1.392
31.5983 1.310
31.6149 1.370
31.6314 1.342
31.6480 1.211
31.6645 1.447
31.6811 1.348
31.6976 1.419
31.7141 1.255
31.7307 1.337
31.7472 1.310
31.7638 1.271
31.7803 1.436
31.7969 1.145
31.8134 1.260
31.8300 1.353
31.8465 1.359
31.8631 1.167
31.8796 1.332
31.8961 1.321
31.9127 1.304
31.9292 1.441
31.9458 1.151
31.9623 1.244
31.9789 1.162
31.9954 1.238
32.0120 1.337
32.0285 1.282
32.0451 1.266
32.0616 1.140
32.0781 1.189
32.0947 1.184
32.1112 1.222
32.1278 1.151
32.1443 1.151
32.1609 1.205
32.1774 1.195
32.1940 1.167
32.2105 1.085
32.2271 1.222
32.2436 1.337
32.2601 1.156
32.2767 1.244
32.2932 1.282
32.3098 1.134
32.3263 1.205
32.3429 1.205
32.3594 1.348
32.3760 1.321
32.3925 1.238
32.4091 1.074
32.4256 1.123
32.4421 1.156
32.4587 1.140
32.4752 1.238
32.4918 1.260
32.5083 1.178
32.5249 1.019
32.5414 1.162
32.5580 1.244
32.5745 1.140
32.5910 1.156
32.6076 1.140
32.6241 1.299
32.6407 1.277
32.6572 1.167
32.6738 1.140
32.6903 1.233
32.7069 1.112
32.7234 1.025
32.7400 1.096
32.7565 1.244
32.7730 1.101
32.7896 1.211
32.8061 1.118
32.8227 1.233
32.8392 1.145
32.8558 1.271
32.8723 1.058
32.8889 1.140
32.9054 1.118
32.9220 1.162
32.9385 1.156
32.9550 1.123
32.9716 1.096
32.9881 1.282
33.0047 0.964
33.0212 1.107
33.0378 1.189
33.0543 1.184
33.0709 1.096
33.0874 1.014
33.1040 1.140
33.1205 1.101
33.1370 1.134
33.1536 1.184
33.1701 1.030
33.1867 1.123
33.2032 1.019
33.2198 1.173
33.2363 1.101
33.2529 0.997
33.2694 0.975
33.2860 1.074
33.3025 1.222
33.3190 0.942
33.3356 1.129
33.3521 0.975
33.3687 1.145
33.3852 1.189
33.4018 1.123
33.4183 1.304
33.4349 1.134
33.4514 1.266
33.4680 1.151
33.4845 1.025
33.5010 1.096
33.5176 1.145
33.5341 1.195
33.5507 1.074
33.5672 1.079
33.5838 1.156
33.6003 1.068
33.6169 1.025
33.6334 1.140
33.6500 1.156
33.6665 1.211
33.6830 1.178
33.6996 1.047
33.7161 1.068
33.7327 1.025
33.7492 1.052
33.7658 1.107
33.7823 1.178
33.7989 1.107
33.8154 1.216
33.8320 1.129
33.8485 1.173
33.8650 1.195
33.8816 1.129
33.8981 1.474
33.9147 1.227
33.9312 1.216
33.9478 1.337
33.9643 1.277
33.9809 1.353
33.9974 1.233
34.0140 1.342
34.0305 1.348
34.0470 1.381
34.0636 1.332
34.0801 1.326
34.0967 1.249
34.1132 1.216
34.1298 1.353
34.1463 1.238
34.1629 1.375
34.1794 1.271
34.1960 1.211
34.2125 1.310
34.2290 1.490
34.2456 1.332
34.2621 1.364
34.2787 1.348
34.2952 1.277
34.3118 1.282
34.3283 1.397
34.3449 1.299
34.3614 1.233
34.3780 1.381
34.3945 1.107
34.4110 1.353
34.4276 1.315
34.4441 1.386
34.4607 1.255
34.4772 1.474
34.4938 1.430
34.5103 1.545
34.5269 1.414
34.5434 1.408
34.5600 1.479
34.5765 1.507
34.5930 1.479
34.6096 1.507
34.6261 1.584
34.6427 1.375
34.6592 1.644
34.6758 1.721
34.6923 1.786
34.7089 1.715
34.7254 1.989
34.7420 2.175
34.7585 2.236
34.7750 2.071
34.7916 2.373
34.8081 2.630
34.8247 2.718
34.8412 3.063
34.8578 3.370
34.8743 3.764
34.8909 3.819
34.9074 4.696
34.9240 5.068
34.9405 5.627
34.9570 6.915
34.9736 7.616
34.9901 9.014
35.0067 11.058
35.0232 12.767
35.0398 15.759
35.0563 19.058
35.0729 23.858
35.0894 29.710
35.1060 36.855
35.1225 42.126
35.1390 47.742
35.1556 47.321
35.1721 44.816
35.1887 39.036
35.2052 34.553
35.2218 30.641
35.2383 27.589
35.2549 23.962
35.2714 18.510
35.2879 13.244
35.3045 9.315
35.3210 7.047
35.3376 5.490
35.3541 4.236
35.3707 3.436
35.3872 3.260
35.4038 2.849
35.4203 2.318
35.4369 2.214
35.4534 2.005
35.4699 2.121
35.4865 2.022
35.5030 1.863
35.5196 1.726
35.5361 1.737
35.5527 1.797
35.5692 1.605
35.5858 1.463
35.6023 1.671
35.6189 1.447
35.6354 1.474
35.6519 1.403
35.6685 1.452
35.6850 1.304
35.7016 1.260
35.7181 1.468
35.7347 1.468
35.7512 1.222
35.7678 1.375
35.7843 1.425
35.8009 1.474
35.8174 1.299
35.8339 1.392
35.8505 1.293
35.8670 1.195
35.8836 1.304
35.9001 1.238
35.9167 1.282
35.9332 1.151
35.9498 1.173
35.9663 1.271
35.9829 1.101
35.9994 1.079
36.0159 1.145
36.0325 1.375
36.0490 1.211
36.0656 1.249
36.0821 1.145
36.0987 1.321
36.1152 1.123
36.1318 1.118
36.1483 1.222
36.1649 1.025
36.1814 1.123
36.1979 1.173
36.2145 1.090
36.2310 1.079
36.2476 1.145
36.2641 1.068
36.2807 1.063
36.2972 1.189
36.3138 1.129
36.3303 1.167
36.3469 1.156
36.3634 1.025
36.3799 1.068
36.3965 1.079
36.4130 1.085
36.4296 1.090
36.4461 1.227
36.4627 1.134
36.4792 1.189
36.4958 1.173
36.5123 1.200
36.5289 1.123
36.5454 1.003
36.5619 1.134
36.5785 1.222
36.5950 1.189
36.6116 1.189
36.6281 1.282
36.6447 1.299
36.6612 1.227
36.6778 1.101
36.6943 1.266
36.7109 1.129
36.7274 1.233
36.7439 1.129
36.7605 1.123
36.7770 1.271
36.7936 0.981
36.8101 1.205
36.8267 1.200
36.8432 1.200
36.8598 0.992
36.8763 1.134
36.8929 1.156
36.9094 1.244
36.9259 1.047
36.9425 1.134
36.9590 1.156
36.9756 1.079
36.9921 1.151
37.0087 1.162
37.0252 1.123
37.0418 1.112
37.0583 0.986
37.0749 1.134
37.0914 1.271
37.1079 1.118
37.1245 1.216
37.1410 1.189
37.1576 1.156
37.1741 1.216
37.1907 1.195
37.2072 1.112
37.2238 1.178
37.2403 1.332
37.2569 1.271
37.2734 1.058
37.2899 1.277
37.3065 1.293
37.3230 1.216
37.3396 1.293
37.3561 1.447
37.3727 1.463
37.3892 1.447
37.4058 1.485
37.4223 1.540
37.4389 1.704
37.4554 1.786
37.4719 1.890
37.4885 1.934
37.5050 2.247
37.5216 2.285
37.5381 2.586
37.5547 2.827
37.5712 3.085
37.5878 3.266
37.6043 3.940
37.6209 4.427
37.6374 4.948
37.6539 6.219
37.6705 7.107
37.6870 8.822
37.7036 10.367
37.7201 13.633
37.7367 15.923
37.7532 18.438
37.7698 19.304
37.7863 19.299
37.8029 17.260
37.8194 14.477
37.8359 13.381
37.8525 12.192
37.8690 11.474
37.8856 10.071
37.9021 7.748
37.9187 6.384
37.9352 4.696
37.9518 3.485
37.9683 2.701
37.9848 2.038
38.0014 2.115
38.0179 1.808
38.0345 1.737
38.0510 1.518
38.0676 1.649
38.0841 1.545
38.1007 1.430
38.1172 1.452
38.1338 1.107
38.1503 1.216
38.1668 1.266
38.1834 1.277
38.1999 1.266
38.2165 1.189
38.2330 1.085
38.2496 1.079
38.2661 1.222
38.2827 0.964
38.2992 1.227
38.3158 1.238
38.3323 1.058
38.3488 1.074
38.3654 1.195
38.3819 0.997
38.3985 1.112
38.4150 1.173
38.4316 1.003
38.4481 0.981
38.4647 1.085
38.4812 1.041
38.4978 1.036
38.5143 1.008
38.5308 0.937
38.5474 0.964
38.5639 1.079
38.5805 0.844
38.5970 0.855
38.6136 0.910
38.6301 1.101
38.6467 0.959
38.6632 1.151
38.6798 0.926
38.6963 0.932
38.7128 0.937
38.7294 1.184
38.7459 0.948
38.7625 0.904
38.7790 1.085
38.7956 1.003
38.8121 1.052
38.8287 0.986
38.8452 0.838
38.8618 1.068
38.8783 1.079
38.8948 1.014
38.9114 0.932
38.9279 1.047
38.9445 1.008
38.9610 1.003
38.9776 1.003
38.9941 1.101
39.0107 1.047
39.0272 1.222
39.0438 0.942
39.0603 1.118
39.0768 0.904
39.0934 1.047
39.1099 0.953
39.1265 1.068
39.1430 0.882
39.1596 0.948
39.1761 0.959
39.1927 0.997
39.2092 0.882
39.2258 0.888
39.2423 0.838
39.2588 0.910
39.2754 0.904
39.2919 0.888
39.3085 0.888
39.3250 0.948
39.3416 0.915
39.3581 0.915
39.3747 0.860
39.3912 0.855
39.4078 0.888
39.4243 0.849
39.4408 0.822
39.4574 0.838
39.4739 0.970
39.4905 0.838
39.5070 0.860
39.5236 0.910
39.5401 0.877
39.5567 0.975
39.5732 0.904
39.5898 0.877
39.6063 0.893
39.6228 1.030
39.6394 0.893
39.6559 0.844
39.6725 0.948
39.6890 0.751
39.7056 0.882
39.7221 0.948
39.7387 0.926
39.7552 0.773
39.7718 0.773
39.7883 0.921
39.8048 0.827
39.8214 0.899
39.8379 0.723
39.8545 0.833
39.8710 0.838
39.8876 0.811
39.9041 0.849
39.9207 0.937
39.9372 0.893
39.9538 0.811
39.9703 0.910
39.9868 0.981
40.0034 0.816
40.0199 0.959
40.0365 0.866
40.0530 0.855
40.0696 0.855
40.0861 0.690
40.1027 0.822
40.1192 0.975
40.1358 0.871
40.1523 0.915
40.1688 0.964
40.1854 0.784
40.2019 0.800
40.2185 0.833
40.2350 0.937
40.2516 0.789
40.2681 0.762
40.2847 0.838
40.3012 0.860
40.3178 0.827
40.3343 0.948
40.3508 0.767
40.3674 0.888
40.3839 0.734
40.4005 0.860
40.4170 0.904
40.4336 0.827
40.4501 0.970
40.4667 0.800
40.4832 0.849
40.4998 0.844
40.5163 0.773
40.5328 0.866
40.5494 0.932
40.5659 0.773
40.5825 0.888
40.5990 0.926
40.6156 0.805
40.6321 0.888
40.6487 0.805
40.6652 0.866
40.6818 0.838
40.6983 0.871
40.7148 0.860
40.7314 0.816
40.7479 0.778
40.7645 0.844
40.7810 0.838
40.7976 0.822
40.8141 0.921
40.8307 0.795
40.8472 0.745
40.8637 0.745
40.8803 0.888
40.8968 0.729
40.9134 0.855
40.9299 0.773
40.9465 0.745
40.9630 0.942
40.9796 0.767
40.9961 0.838
41.0127 0.816
41.0292 0.822
41.0457 0.795
41.0623 0.904
41.0788 0.767
41.0954 0.816
41.1119 0.723
41.1285 0.778
41.1450 0.871
41.1616 0.822
41.1781 0.816
41.1947 0.904
41.2112 0.778
41.2277 0.789
41.2443 0.866
41.2608 0.871
41.2774 0.827
41.2939 0.762
41.3105 0.822
41.3270 0.926
41.3436 0.690
41.3601 0.816
41.3767 0.877
41.3932 0.877
41.4097 0.860
41.4263 0.822
41.4428 0.767
41.4594 1.036
41.4759 0.784
41.4925 0.882
41.5090 0.800
41.5256 0.981
41.5421 0.767
41.5587 0.975
41.5752 0.953
41.5917 1.052
41.6083 1.036
41.6248 1.173
41.6414 1.134
41.6579 1.205
41.6745 1.173
41.6910 1.173
41.7076 1.101
41.7241 1.145
41.7407 1.162
41.7572 1.107
41.7737 1.216
41.7903 1.090
41.8068 1.008
41.8234 1.140
41.8399 0.899
41.8565 1.090
41.8730 0.899
41.8896 0.964
41.9061 0.986
41.9227 0.997
41.9392 1.014
41.9557 1.063
41.9723 0.871
41.9888 0.855
42.0054 0.811
42.0219 0.986
42.0385 0.871
42.0550 0.986
42.0716 0.964
42.0881 1.101
42.1047 0.975
42.1212 0.964
42.1377 1.008
42.1543 0.970
42.1708 0.948
42.1874 1.123
42.2039 0.844
42.2205 1.107
42.2370 1.151
42.2536 1.003
42.2701 0.959
42.2867 0.992
42.3032 0.937
42.3197 0.893
42.3363 1.008
42.3528 0.997
42.3694 1.003
42.3859 0.981
42.4025 0.997
42.4190 0.997
42.4356 1.063
42.4521 0.959
42.4687 1.068
42.4852 1.118
42.5017 1.030
42.5183 1.090
42.5348 1.025
42.5514 1.079
42.5679 1.079
42.5845 1.030
42.6010 1.085
42.6176 1.047
42.6341 1.151
42.6507 1.167
42.6672 1.173
42.6837 1.151
42.7003 1.140
42.7168 1.085
42.7334 1.249
42.7499 1.342
42.7665 1.370
42.7830 1.425
42.7996 1.326
42.8161 1.271
42.8327 1.430
42.8492 1.441
42.8657 1.436
42.8823 1.605
42.8988 1.381
42.9154 1.797
42.9319 1.907
42.9485 2.022
42.9650 2.071
42.9816 2.252
42.9981 2.597
43.0147 2.603
43.0312 2.986
43.0477 3.244
43.0643 3.803
43.0808 4.225
43.0974 4.910
43.1139 5.101
43.1305 5.984
43.1470 6.997
43.1636 8.082
43.1801 9.605
43.1967 11.003
43.2132 12.340
43.2297 15.310
43.2463 18.049
43.2628 21.540
43.2794 26.838
43.2959 32.088
43.3125 39.370
43.3290 44.093
43.3456 48.510
43.3621 47.025
43.3787 41.310
43.3952 35.052
43.4117 30.164
43.4283 28.082
43.4448 27.671
43.4614 25.545
43.4779 22.822
43.4945 18.827
43.5110 13.578
43.5276 10.307
43.5441 7.140
43.5606 5.293
43.5772 4.197
43.5937 3.584
43.6103 3.392
43.6268 2.625
43.6434 2.619
43.6599 2.197
43.6765 2.022
43.6930 1.940
43.7096 1.699
43.7261 1.748
43.7426 1.534
43.7592 1.397
43.7757 1.381
43.7923 1.381
43.8088 1.326
43.8254 1.386
43.8419 1.310
43.8585 1.282
43.8750 1.238
43.8916 1.216
43.9081 1.216
43.9246 1.233
43.9412 1.036
43.9577 1.058
43.9743 1.085
43.9908 1.090
44.0074 0.926
44.0239 1.030
44.0405 1.096
44.0570 0.937
44.0736 1.047
44.0901 0.942
44.1066 0.838
44.1232 0.942
44.1397 1.019
44.1563 0.932
44.1728 0.975
44.1894 1.030
44.2059 1.030
44.2225 0.926
44.2390 0.899
44.2556 1.030
44.2721 0.893
44.2886 0.866
44.3052 0.811
44.3217 0.855
44.3383 0.882
44.3548 0.877
44.3714 0.805
44.3879 0.953
44.4045 0.822
44.4210 0.838
44.4376 0.904
44.4541 0.778
44.4706 0.855
44.4872 0.844
44.5037 0.893
44.5203 0.860
44.5368 0.789
44.5534 0.822
44.5699 0.932
44.5865 0.745
44.6030 0.816
44.6196 0.805
44.6361 0.866
44.6526 0.789
44.6692 0.975
44.6857 0.860
44.7023 0.855
44.7188 0.800
44.7354 0.844
44.7519 0.915
44.7685 0.893
44.7850 0.882
44.8016 0.932
44.8181 0.805
44.8346 0.893
44.8512 0.789
44.8677 0.849
44.8843 0.729
44.9008 0.778
44.9174 0.685
44.9339 0.800
44.9505 0.751
44.9670 0.789
44.9836 0.745
45.0001 0.674
45.0166 0.729
45.0332 0.745
45.0497 0.827
45.0663 0.789
45.0828 0.795
45.0994 0.734
45.1159 0.795
45.1325 0.740
45.1490 0.745
45.1656 0.778
45.1821 0.767
45.1986 0.860
45.2152 0.849
45.2317 0.784
45.2483 0.778
45.2648 0.866
45.2814 0.647
45.2979 0.745
45.3145 0.805
45.3310 0.811
45.3476 0.718
45.3641 0.723
45.3806 0.685
45.3972 0.674
45.4137 0.882
45.4303 0.740
45.4468 0.745
45.4634 0.844
45.4799 0.745
45.4965 0.816
45.5130 0.734
45.5296 0.690
45.5461 0.745
45.5626 0.751
45.5792 0.647
45.5957 0.707
45.6123 0.734
45.6288 0.789
45.6454 0.679
45.6619 0.773
45.6785 0.762
45.6950 0.718
45.7116 0.784
45.7281 0.762
45.7446 0.767
45.7612 0.745
45.7777 0.718
45.7943 0.778
45.8108 0.740
45.8274 0.822
45.8439 0.641
45.8605 0.773
45.8770 0.866
45.8936 0.701
45.9101 0.773
45.9266 0.751
45.9432 0.707
45.9597 0.822
45.9763 0.789
45.9928 0.888
46.0094 0.822
46.0259 0.953
46.0425 0.948
46.0590 0.932
46.0756 0.932
46.0921 1.063
46.1086 1.079
46.1252 1.052
46.1417 1.173
46.1583 1.304
46.1748 1.238
46.1914 1.337
46.2079 1.096
46.2245 1.058
46.2410 1.096
46.2575 0.942
46.2741 1.151
46.2906 0.953
46.3072 0.904
46.3237 1.003
46.3403 0.789
46.3568 0.855
46.3734 0.740
46.3899 0.816
46.4065 0.707
46.4230 0.751
46.4395 0.827
46.4561 0.658
46.4726 0.636
46.4892 0.718
46.5057 0.690
46.5223 0.745
46.5388 0.630
46.5554 0.822
46.5719 0.647
46.5885 0.718
46.6050 0.608
46.6215 0.701
46.6381 0.630
46.6546 0.619
46.6712 0.740
46.6877 0.619
46.7043 0.729
46.7208 0.849
46.7374 0.899
46.7539 0.712
46.7705 0.663
46.7870 0.658
46.8035 0.679
46.8201 0.575
46.8366 0.636
46.8532 0.537
46.8697 0.690
46.8863 0.570
46.9028 0.773
46.9194 0.762
46.9359 0.663
46.9525 0.696
46.9690 0.625
46.9855 0.773
47.0021 0.685
47.0186 0.718
47.0352 0.789
47.0517 0.696
47.0683 0.762
47.0848 0.674
47.1014 0.718
47.1179 0.729
47.1345 0.608
47.1510 0.740
47.1675 0.668
47.1841 0.603
47.2006 0.696
47.2172 0.570
47.2337 0.619
47.2503 0.745
47.2668 0.636
47.2834 0.729
47.2999 0.696
47.3165 0.701
47.3330 0.690
47.3495 0.827
47.3661 0.679
47.3826 0.784
47.3992 0.641
47.4157 0.619
47.4323 0.679
47.4488 0.663
47.4654 0.729
47.4819 0.564
47.4985 0.767
47.5150 0.559
47.5315 0.641
47.5481 0.641
47.5646 0.767
47.5812 0.603
47.5977 0.663
47.6143 0.553
47.6308 0.603
47.6474 0.619
47.6639 0.658
47.6805 0.526
47.6970 0.570
47.7135 0.668
47.7301 0.625
47.7466 0.718
47.7632 0.729
47.7797 0.564
47.7963 0.581
47.8128 0.603
47.8294 0.679
47.8459 0.636
47.8625 0.630
47.8790 0.679
47.8955 0.575
47.9121 0.658
47.9286 0.685
47.9452 0.603
47.9617 0.630
47.9783 0.619
47.9948 0.674
48.0114 0.696
48.0279 0.559
48.0445 0.625
48.0610 0.559
48.0775 0.619
48.0941 0.586
48.1106 0.690
48.1272 0.559
48.1437 0.641
48.1603 0.570
48.1768 0.652
48.1934 0.663
48.2099 0.679
48.2265 0.608
48.2430 0.652
48.2595 0.532
48.2761 0.641
48.2926 0.597
48.3092 0.570
48.3257 0.740
48.3423 0.805
48.3588 0.800
48.3754 0.959
48.3919 1.129
48.4085 0.997
48.4250 0.877
48.4415 0.690
48.4581 0.674
48.4746 0.729
48.4912 0.630
48.5077 0.668
48.5243 0.575
48.5408 0.597
48.5574 0.553
48.5739 0.570
48.5905 0.679
48.6070 0.740
48.6235 0.603
48.6401 0.493
48.6566 0.575
48.6732 0.537
48.6897 0.652
48.7063 0.504
48.7228 0.548
48.7394 0.564
48.7559 0.663
48.7725 0.641
48.7890 0.647
48.8055 0.636
48.8221 0.805
48.8386 0.707
48.8552 0.592
48.8717 0.614
48.8883 0.625
48.9048 0.619
48.9214 0.553
48.9379 0.614
48.9545 0.652
48.9710 0.559
48.9875 0.707
49.0041 0.564
49.0206 0.597
49.0372 0.504
49.0537 0.690
49.0703 0.597
49.0868 0.663
49.1034 0.564
49.1199 0.614
49.1364 0.460
49.1530 0.619
49.1695 0.466
49.1861 0.663
49.2026 0.537
49.2192 0.537
49.2357 0.663
49.2523 0.575
49.2688 0.575
49.2854 0.542
49.3019 0.504
49.3184 0.658
49.3350 0.658
49.3515 0.559
49.3681 0.548
49.3846 0.668
49.4012 0.537
49.4177 0.488
49.4343 0.477
49.4508 0.603
49.4674 0.575
49.4839 0.510
49.5004 0.679
49.5170 0.564
49.5335 0.553
49.5501 0.488
49.5666 0.521
49.5832 0.526
49.5997 0.548
49.6163 0.526
49.6328 0.652
49.6494 0.471
49.6659 0.592
49.6824 0.548
49.6990 0.608
49.7155 0.471
49.7321 0.619
49.7486 0.625
49.7652 0.663
49.7817 0.570
49.7983 0.658
49.8148 0.614
49.8314 0.641
49.8479 0.521
49.8644 0.608
49.8810 0.542
49.8975 0.636
49.9141 0.718
49.9306 0.652
49.9472 0.586
49.9637 0.570
49.9803 0.532
49.9968 0.504
50.0134 0.619
50.0299 0.521
50.0464 0.581
50.0630 0.471
50.0795 0.493
50.0961 0.526
50.1126 0.581
50.1292 0.619
50.1457 0.641
50.1623 0.559
50.1788 0.603
50.1954 0.723
50.2119 0.630
50.2284 0.647
50.2450 0.614
50.2615 0.586
50.2781 0.499
50.2946 0.564
50.3112 0.668
50.3277 0.619
50.3443 0.570
50.3608 0.455
50.3774 0.608
50.3939 0.581
50.4104 0.575
50.4270 0.537
50.4435 0.592
50.4601 0.608
50.4766 0.603
50.4932 0.564
50.5097 0.537
50.5263 0.510
50.5428 0.521
50.5594 0.603
50.5759 0.521
50.5924 0.652
50.6090 0.592
50.6255 0.674
50.6421 0.647
50.6586 0.592
50.6752 0.723
50.6917 0.647
50.7083 0.816
50.7248 0.586
50.7414 0.795
50.7579 0.663
50.7744 0.636
50.7910 0.564
50.8075 0.690
50.8241 0.608
50.8406 0.597
50.8572 0.614
50.8737 0.515
50.8903 0.586
50.9068 0.603
50.9234 0.553
50.9399 0.668
50.9564 0.707
50.9730 0.575
50.9895 0.647
51.0061 0.614
51.0226 0.619
51.0392 0.619
51.0557 0.636
51.0723 0.685
51.0888 0.597
51.1054 0.762
51.1219 0.652
51.1384 0.647
51.1550 0.668
51.1715 0.729
51.1881 0.597
51.2046 0.668
51.2212 0.619
51.2377 0.581
51.2543 0.679
51.2708 0.756
51.2874 0.685
51.3039 0.652
51.3204 0.707
51.3370 0.625
51.3535 0.592
51.3701 0.658
51.3866 0.581
51.4032 0.707
51.4197 0.685
51.4363 0.729
51.4528 0.723
51.4694 0.745
51.4859 0.723
51.5024 0.636
51.5190 0.630
51.5355 0.685
51.5521 0.690
51.5686 0.778
51.5852 0.712
51.6017 0.707
51.6183 0.668
51.6348 0.816
51.6514 0.575
51.6679 0.668
51.6844 0.795
51.7010 0.712
51.7175 0.707
51.7341 0.773
51.7506 0.652
51.7672 0.636
51.7837 0.734
51.8003 0.800
51.8168 0.619
51.8333 0.668
51.8499 0.756
51.8664 0.778
51.8830 0.844
51.8995 0.795
51.9161 0.685
51.9326 0.745
51.9492 0.893
51.9657 0.795
51.9823 0.877
51.9988 0.855
52.0153 0.811
52.0319 0.893
52.0484 1.063
52.0650 1.058
52.0815 0.811
52.0981 1.068
52.1146 1.134
52.1312 1.178
52.1477 1.447
52.1643 1.260
52.1808 1.474
52.1973 1.479
52.2139 1.633
52.2304 1.699
52.2470 2.175
52.2635 2.099
52.2801 2.411
52.2966 2.668
52.3132 2.882
52.3297 3.151
52.3463 3.562
52.3628 4.373
52.3793 4.652
52.3959 6.077
52.4124 6.767
52.4290 7.956
52.4455 8.668
52.4621 10.553
52.4786 12.603
52.4952 15.052
52.5117 17.441
52.5283 18.986
52.5448 20.334
52.5613 19.003
52.5779 16.860
52.5944 14.121
52.6110 12.153
52.6275 10.400
52.6441 10.800
52.6606 10.773
52.6772 10.762
52.6937 10.110
52.7103 9.008
52.7268 6.992
52.7433 5.605
52.7599 3.792
52.7764 3.079
52.7930 2.422
52.8095 1.929
52.8261 1.940
52.8426 1.781
52.8592 1.408
52.8757 1.392
52.8923 1.244
52.9088 1.030
52.9253 0.997
52.9419 1.085
52.9584 0.921
52.9750 1.058
52.9915 0.893
53.0081 0.844
53.0246 0.844
53.0412 0.953
53.0577 0.871
53.0743 0.838
53.0908 0.756
53.1073 0.701
53.1239 0.888
53.1404 0.899
53.1570 0.625
53.1735 0.822
53.1901 0.641
53.2066 0.614
53.2232 0.784
53.2397 0.641
53.2563 0.696
53.2728 0.723
53.2893 0.690
53.3059 0.658
53.3224 0.636
53.3390 0.608
53.3555 0.597
53.3721 0.652
53.3886 0.729
53.4052 0.553
53.4217 0.652
53.4383 0.641
53.4548 0.586
53.4713 0.668
53.4879 0.685
53.5044 0.575
53.5210 0.658
53.5375 0.603
53.5541 0.542
53.5706 0.658
53.5872 0.652
53.6037 0.608
53.6203 0.608
53.6368 0.553
53.6533 0.553
53.6699 0.603
53.6864 0.647
53.7030 0.575
53.7195 0.586
53.7361 0.532
53.7526 0.575
53.7692 0.532
53.7857 0.532
53.8023 0.603
53.8188 0.663
53.8353 0.542
53.8519 0.663
53.8684 0.537
53.8850 0.537
53.9015 0.526
53.9181 0.592
53.9346 0.575
53.9512 0.526
53.9677 0.548
53.9843 0.597
54.0008 0.619
54.0173 0.668
54.0339 0.564
54.0504 0.482
54.0670 0.641
54.0835 0.466
54.1001 0.597
54.1166 0.614
54.1332 0.521
54.1497 0.603
54.1663 0.658
54.1828 0.553
54.1993 0.685
54.2159 0.592
54.2324 0.581
54.2490 0.641
54.2655 0.630
54.2821 0.559
54.2986 0.526
54.3152 0.564
54.3317 0.542
54.3483 0.477
54.3648 0.499
54.3813 0.608
54.3979 0.542
54.4144 0.553
54.4310 0.548
54.4475 0.581
54.4641 0.504
54.4806 0.625
54.4972 0.548
54.5137 0.548
54.5302 0.559
54.5468 0.619
54.5633 0.532
54.5799 0.493
54.5964 0.515
54.6130 0.553
54.6295 0.542
54.6461 0.570
54.6626 0.427
54.6792 0.548
54.6957 0.449
54.7122 0.532
54.7288 0.542
54.7453 0.597
54.7619 0.581
54.7784 0.504
54.7950 0.515
54.8115 0.592
54.8281 0.510
54.8446 0.581
54.8612 0.559
54.8777 0.444
54.8942 0.444
54.9108 0.597
54.9273 0.553
54.9439 0.499
54.9604 0.630
54.9770 0.559
54.9935 0.559
55.0101 0.581
55.0266 0.647
55.0432 0.510
55.0597 0.515
55.0762 0.570
55.0928 0.493
55.1093 0.548
55.1259 0.471
55.1424 0.526
55.1590 0.532
55.1755 0.658
55.1921 0.619
55.2086 0.581
55.2252 0.488
55.2417 0.570
55.2582 0.559
55.2748 0.532
55.2913 0.553
55.3079 0.641
55.3244 0.603
55.3410 0.575
55.3575 0.619
55.3741 0.696
55.3906 0.652
55.4072 0.707
55.4237 0.690
55.4402 0.564
55.4568 0.592
55.4733 0.668
55.4899 0.570
55.5064 0.592
55.5230 0.668
55.5395 0.564
55.5561 0.586
55.5726 0.652
55.5892 0.707
55.6057 0.740
55.6222 0.658
55.6388 0.658
55.6553 0.625
55.6719 0.603
55.6884 0.668
55.7050 0.581
55.7215 0.586
55.7381 0.548
55.7546 0.625
55.7712 0.575
55.7877 0.740
55.8042 0.658
55.8208 0.679
55.8373 0.696
55.8539 0.625
55.8704 0.619
55.8870 0.712
55.9035 0.658
55.9201 0.619
55.9366 0.575
55.9532 0.701
55.9697 0.745
55.9862 0.625
56.0028 0.603
56.0193 0.668
56.0359 0.658
56.0524 0.729
56.0690 0.614
56.0855 0.674
56.1021 0.570
56.1186 0.674
56.1352 0.647
56.1517 0.619
56.1682 0.619
56.1848 0.701
56.2013 0.608
56.2179 0.712
56.2344 0.773
56.2510 0.729
56.2675 0.658
56.2841 0.696
56.3006 0.789
56.3172 0.663
56.3337 0.745
56.3502 0.597
56.3668 0.751
56.3833 0.641
56.3999 0.751
56.4164 0.784
56.4330 0.679
56.4495 0.690
56.4661 0.658
56.4826 0.707
56.4992 0.756
56.5157 0.652
56.5322 0.734
56.5488 0.767
56.5653 0.811
56.5819 0.679
56.5984 0.679
56.6150 0.789
56.6315 0.647
56.6481 0.734
56.6646 0.767
56.6812 0.751
56.6977 0.822
56.7142 0.871
56.7308 0.647
56.7473 0.827
56.7639 0.866
56.7804 0.849
56.7970 0.986
56.8135 0.833
56.8301 0.893
56.8466 0.932
56.8632 0.877
56.8797 1.003
56.8962 1.090
56.9128 1.014
56.9293 1.063
56.9459 1.145
56.9624 1.315
56.9790 1.260
56.9955 1.310
57.0121 1.216
57.0286 1.529
57.0452 1.490
57.0617 1.721
57.0782 1.808
57.0948 2.005
57.1113 2.126
57.1279 2.268
57.1444 2.455
57.1610 2.784
57.1775 3.145
57.1941 3.589
57.2106 3.660
57.2272 4.345
57.2437 5.036
57.2602 5.627
57.2768 5.945
57.2933 6.915
57.3099 8.121
57.3264 9.162
57.3430 10.668
57.3595 12.542
57.3761 15.485
57.3926 17.496
57.4091 21.222
57.4257 24.986
57.4422 29.090
57.4588 33.447
57.4753 38.038
57.4919 39.019
57.5084 38.005
57.5250 32.811
57.5415 27.321
57.5581 22.142
57.5746 20.153
57.5911 18.937
57.6077 18.932
57.6242 20.225
57.6408 20.910
57.6573 19.874
57.6739 16.948
57.6904 14.077
57.7070 10.164
57.7235 7.156
57.7401 5.074
57.7566 4.208
57.7731 3.474
57.7897 2.882
57.8062 2.729
57.8228 2.384
57.8393 1.962
57.8559 1.945
57.8724 1.600
57.8890 1.748
57.9055 1.518
57.9221 1.392
57.9386 1.359
57.9551 1.260
57.9717 1.222
57.9882 1.107
58.0048 1.030
58.0213 1.047
58.0379 1.030
58.0544 1.003
58.0710 1.030
58.0875 0.953
58.1041 1.129
58.1206 0.942
58.1371 0.844
58.1537 0.805
58.1702 0.795
58.1868 0.800
58.2033 0.734
58.2199 0.833
58.2364 0.849
58.2530 0.751
58.2695 0.734
58.2861 0.685
58.3026 0.685
58.3191 0.756
58.3357 0.795
58.3522 0.685
58.3688 0.625
58.3853 0.690
58.4019 0.767
58.4184 0.652
58.4350 0.630
58.4515 0.641
58.4681 0.570
58.4846 0.690
58.5011 0.679
58.5177 0.674
58.5342 0.641
58.5508 0.663
58.5673 0.658
58.5839 0.734
58.6004 0.701
58.6170 0.619
58.6335 0.636
58.6501 0.542
58.6666 0.559
58.6831 0.674
58.6997 0.581
58.7162 0.603
58.7328 0.532
58.7493 0.592
58.7659 0.515
58.7824 0.586
58.7990 0.597
58.8155 0.592
58.8321 0.729
58.8486 0.658
58.8651 0.559
58.8817 0.658
58.8982 0.581
58.9148 0.553
58.9313 0.619
58.9479 0.581
58.9644 0.559
58.9810 0.526
58.9975 0.592
59.0141 0.575
59.0306 0.477
59.0471 0.488
59.0637 0.504
59.0802 0.586
59.0968 0.636
59.1133 0.630
59.1299 0.614
59.1464 0.521
59.1630 0.575
59.1795 0.548
59.1961 0.537
59.2126 0.586
59.2291 0.526
59.2457 0.647
59.2622 0.553
59.2788 0.652
59.2953 0.592
59.3119 0.559
59.3284 0.570
59.3450 0.685
59.3615 0.575
59.3781 0.784
59.3946 0.718
59.4111 0.625
59.4277 0.723
59.4442 0.636
59.4608 0.789
59.4773 0.647
59.4939 0.636
59.5104 0.712
59.5270 0.647
59.5435 0.838
59.5601 0.784
59.5766 0.855
59.5931 0.997
59.6097 0.871
59.6262 0.953
59.6428 0.981
59.6593 1.151
59.6759 1.162
59.6924 1.282
59.7090 1.479
59.7255 1.364
59.7421 1.419
59.7586 1.441
59.7751 1.304
59.7917 1.074
59.8082 1.134
59.8248 0.953
59.8413 0.997
59.8579 0.964
59.8744 0.942
59.8910 1.036
59.9075 0.959
59.9241 0.893
59.9406 0.767
59.9571 0.751
59.9737 0.751
59.9902 0.641
60.0068 0.630
60.0233 0.619
60.0399 0.548
60.0564 0.559
60.0730 0.586
60.0895 0.592
60.1060 0.559
60.1226 0.526
60.1391 0.466
60.1557 0.592
60.1722 0.477
60.1888 0.515
60.2053 0.548
60.2219 0.488
60.2384 0.625
60.2550 0.504
60.2715 0.526
60.2880 0.630
60.3046 0.449
60.3211 0.515
60.3377 0.504
60.3542 0.559
60.3708 0.532
60.3873 0.570
60.4039 0.597
60.4204 0.526
60.4370 0.575
60.4535 0.630
60.4700 0.471
60.4866 0.553
60.5031 0.542
60.5197 0.532
60.5362 0.449
60.5528 0.449
60.5693 0.586
60.5859 0.455
60.6024 0.559
60.6190 0.493
60.6355 0.493
60.6520 0.575
60.6686 0.630
60.6851 0.570
60.7017 0.586
60.7182 0.586
60.7348 0.636
60.7513 0.619
60.7679 0.679
60.7844 0.619
60.8010 0.718
60.8175 0.723
60.8340 0.942
60.8506 0.712
60.8671 0.718
60.8837 0.827
60.9002 0.773
60.9168 0.816
60.9333 0.833
60.9499 0.833
60.9664 1.014
60.9830 1.085
60.9995 1.348
61.0160 1.348
61.0326 1.321
61.0491 1.507
61.0657 1.677
61.0822 2.049
61.0988 2.110
61.1153 2.318
61.1319 2.274
61.1484 2.384
61.1650 2.488
61.1815 2.274
61.1980 2.422
61.2146 2.532
61.2311 2.800
61.2477 3.090
61.2642 3.803
61.2808 3.896
61.2973 4.104
61.3139 3.671
61.3304 3.244
61.3470 2.767
61.3635 2.356
61.3800 2.005
61.3966 1.885
61.4131 1.923
61.4297 2.022
61.4462 2.005
61.4628 2.164
61.4793 2.044
61.4959 1.507
61.5124 1.222
61.5290 1.189
61.5455 0.992
61.5620 0.827
61.5786 0.718
61.5951 0.767
61.6117 0.674
61.6282 0.570
61.6448 0.614
61.6613 0.707
61.6779 0.488
61.6944 0.532
61.7110 0.449
61.7275 0.608
61.7440 0.614
61.7606 0.515
61.7771 0.548
61.7937 0.553
61.8102 0.515
61.8268 0.575
61.8433 0.444
61.8599 0.575
61.8764 0.548
61.8930 0.553
61.9095 0.477
61.9260 0.482
61.9426 0.455
61.9591 0.592
61.9757 0.477
61.9922 0.488
62.0088 0.449
62.0253 0.564
62.0419 0.482
62.0584 0.460
62.0750 0.658
62.0915 0.384
62.1080 0.504
62.1246 0.449
62.1411 0.449
62.1577 0.444
62.1742 0.444
62.1908 0.586
62.2073 0.422
62.2239 0.499
62.2404 0.482
62.2570 0.471
62.2735 0.471
62.2900 0.466
62.3066 0.499
62.3231 0.521
62.3397 0.466
62.3562 0.542
62.3728 0.466
62.3893 0.455
62.4059 0.537
62.4224 0.471
62.4390 0.466
62.4555 0.438
62.4720 0.482
62.4886 0.460
62.5051 0.553
62.5217 0.449
62.5382 0.559
62.5548 0.542
62.5713 0.471
62.5879 0.482
62.6044 0.466
62.6210 0.378
62.6375 0.411
62.6540 0.438
62.6706 0.493
62.6871 0.499
62.7037 0.422
62.7202 0.384
62.7368 0.449
62.7533 0.477
62.7699 0.466
62.7864 0.378
62.8029 0.471
62.8195 0.389
62.8360 0.389
62.8526 0.548
62.8691 0.477
62.8857 0.504
62.9022 0.356
62.9188 0.553
62.9353 0.449
62.9519 0.405
62.9684 0.482
62.9849 0.433
63.0015 0.526
63.0180 0.438
63.0346 0.340
63.0511 0.438
63.0677 0.384
63.0842 0.526
63.1008 0.422
63.1173 0.488
63.1339 0.395
63.1504 0.356
63.1669 0.455
63.1835 0.493
63.2000 0.488
63.2166 0.510
63.2331 0.537
63.2497 0.466
63.2662 0.422
63.2828 0.532
63.2993 0.416
63.3159 0.488
63.3324 0.521
63.3489 0.433
63.3655 0.422
63.3820 0.367
63.3986 0.460
63.4151 0.373
63.4317 0.400
63.4482 0.460
63.4648 0.422
63.4813 0.438
63.4979 0.373
63.5144 0.438
63.5309 0.542
63.5475 0.427
63.5640 0.482
63.5806 0.466
63.5971 0.449
63.6137 0.510
63.6302 0.422
63.6468 0.378
63.6633 0.427
63.6799 0.422
63.6964 0.416
63.7129 0.488
63.7295 0.499
63.7460 0.499
63.7626 0.586
63.7791 0.433
63.7957 0.515
63.8122 0.449
63.8288 0.471
63.8453 0.433
63.8619 0.542
63.8784 0.504
63.8949 0.466
63.9115 0.482
63.9280 0.466
63.9446 0.466
63.9611 0.449
63.9777 0.499
63.9942 0.433
64.0108 0.532
64.0273 0.438
64.0439 0.471
64.0604 0.466
64.0769 0.510
64.0935 0.422
64.1100 0.400
64.1266 0.455
64.1431 0.427
64.1597 0.477
64.1762 0.499
64.1928 0.471
64.2093 0.488
64.2259 0.504
64.2424 0.504
64.2589 0.521
64.2755 0.586
64.2920 0.499
64.3086 0.526
64.3251 0.444
64.3417 0.515
64.3582 0.493
64.3748 0.526
64.3913 0.405
64.4079 0.471
64.4244 0.553
64.4409 0.433
64.4575 0.499
64.4740 0.548
64.4906 0.411
64.5071 0.477
64.5237 0.521
64.5402 0.422
64.5568 0.510
64.5733 0.444
64.5899 0.477
64.6064 0.427
64.6229 0.493
64.6395 0.493
64.6560 0.405
64.6726 0.515
64.6891 0.488
64.7057 0.433
64.7222 0.493
64.7388 0.515
64.7553 0.482
64.7719 0.438
64.7884 0.521
64.8049 0.537
64.8215 0.553
64.8380 0.444
64.8546 0.559
64.8711 0.499
64.8877 0.564
64.9042 0.433
64.9208 0.526
64.9373 0.482
64.9539 0.455
64.9704 0.504
64.9869 0.455
65.0035 0.532
65.0200 0.521
65.0366 0.444
65.0531 0.526
65.0697 0.460
65.0862 0.466
65.1028 0.542
65.1193 0.542
65.1359 0.493
65.1524 0.455
65.1689 0.455
65.1855 0.466
65.2020 0.515
65.2186 0.597
65.2351 0.482
65.2517 0.537
65.2682 0.559
65.2848 0.427
65.3013 0.471
65.3179 0.515
65.3344 0.499
65.3509 0.510
65.3675 0.477
65.3840 0.466
65.4006 0.488
65.4171 0.564
65.4337 0.592
65.4502 0.532
65.4668 0.521
65.4833 0.526
65.4999 0.619
65.5164 0.471
65.5329 0.504
65.5495 0.433
65.5660 0.575
65.5826 0.559
65.5991 0.630
65.6157 0.608
65.6322 0.690
65.6488 0.537
65.6653 0.641
65.6818 0.647
65.6984 0.614
65.7149 0.548
65.7315 0.537
65.7480 0.641
65.7646 0.647
65.7811 0.608
65.7977 0.553
65.8142 0.696
65.8308 0.564
65.8473 0.773
65.8638 0.608
65.8804 0.641
65.8969 0.663
65.9135 0.800
65.9300 0.800
65.9466 0.784
65.9631 0.701
65.9797 0.789
65.9962 0.805
66.0128 0.701
66.0293 0.805
66.0458 0.734
66.0624 0.975
66.0789 1.090
66.0955 1.096
66.1120 1.008
66.1286 1.249
66.1451 1.381
66.1617 1.381
66.1782 1.414
66.1948 1.748
66.2113 1.792
66.2278 1.901
66.2444 2.301
66.2609 2.263
66.2775 2.597
66.2940 2.921
66.3106 3.238
66.3271 3.611
66.3437 3.967
66.3602 4.389
66.3768 5.299
66.3933 6.099
66.4098 7.063
66.4264 8.548
66.4429 9.085
66.4595 10.685
66.4760 12.066
66.4926 13.112
66.5091 13.923
66.5257 13.200
66.5422 11.353
66.5588 9.912
66.5753 7.973
66.5918 6.663
66.6084 5.995
66.6249 6.279
66.6415 6.597
66.6580 7.025
66.6746 7.529
66.6911 7.403
66.7077 6.795
66.7242 6.340
66.7408 5.008
66.7573 4.044
66.7738 2.800
66.7904 2.438
66.8069 1.912
66.8235 1.638
66.8400 1.375
66.8566 1.277
66.8731 1.195
66.8897 1.112
66.9062 1.003
66.9228 1.096
66.9393 1.014
66.9558 0.975
66.9724 0.833
66.9889 0.942
67.0055 0.822
67.0220 0.723
67.0386 0.701
67.0551 0.816
67.0717 0.871
67.0882 0.784
67.1048 0.816
67.1213 0.647
67.1378 0.641
67.1544 0.581
67.1709 0.784
67.1875 0.712
67.2040 0.679
67.2206 0.685
67.2371 0.712
67.2537 0.597
67.2702 0.619
67.2868 0.740
67.3033 0.586
67.3198 0.712
67.3364 0.784
67.3529 0.762
67.3695 0.734
67.3860 0.608
67.4026 0.619
67.4191 0.805
67.4357 0.679
67.4522 0.745
67.4688 0.723
67.4853 0.734
67.5018 0.641
67.5184 0.756
67.5349 0.773
67.5515 0.762
67.5680 0.849
67.5846 0.893
67.6011 0.849
67.6177 0.932
67.6342 0.932
67.6508 0.992
67.6673 0.981
67.6838 0.888
67.7004 0.937
67.7169 1.030
67.7335 1.134
67.7500 1.079
67.7666 1.381
67.7831 1.397
67.7997 1.359
67.8162 1.458
67.8328 1.551
67.8493 1.732
67.8658 1.732
67.8824 2.022
67.8989 2.340
67.9155 2.608
67.9320 2.811
67.9486 2.751
67.9651 3.315
67.9817 3.874
67.9982 4.444
68.0148 5.079
68.0313 5.721
68.0478 6.849
68.0644 7.638
68.0809 8.795
68.0975 9.945
68.1140 11.858
68.1306 13.627
68.1471 16.033
68.1637 18.088
68.1802 19.134
68.1968 20.762
68.2133 19.277
68.2298 17.638
68.2464 15.025
68.2629 12.230
68.2795 10.268
68.2960 9.162
68.3126 8.647
68.3291 9.436
68.3457 10.011
68.3622 10.027
68.3787 10.581
68.3953 10.542
68.4118 9.545
68.4284 8.411
68.4449 6.214
68.4615 4.685
68.4780 3.792
68.4946 2.904
68.5111 2.416
68.5277 2.000
68.5442 1.792
68.5607 1.386
68.5773 1.326
68.5938 1.184
68.6104 1.162
68.6269 1.041
68.6435 0.981
68.6600 0.992
68.6766 0.904
68.6931 0.877
68.7097 0.795
68.7262 0.882
68.7427 0.816
68.7593 0.701
68.7758 0.729
68.7924 0.811
68.8089 0.636
68.8255 0.647
68.8420 0.636
68.8586 0.718
68.8751 0.510
68.8917 0.625
68.9082 0.608
68.9247 0.636
68.9413 0.608
68.9578 0.575
68.9744 0.652
68.9909 0.630
69.0075 0.614
69.0240 0.482
69.0406 0.663
69.0571 0.625
69.0737 0.636
69.0902 0.542
69.1067 0.532
69.1233 0.542
69.1398 0.592
69.1564 0.614
69.1729 0.526
69.1895 0.449
69.2060 0.537
69.2226 0.504
69.2391 0.559
69.2557 0.482
69.2722 0.510
69.2887 0.515
69.3053 0.603
69.3218 0.499
69.3384 0.570
69.3549 0.597
69.3715 0.449
69.3880 0.444
69.4046 0.488
69.4211 0.493
69.4377 0.537
69.4542 0.433
69.4707 0.466
69.4873 0.510
69.5038 0.499
69.5204 0.395
69.5369 0.488
69.5535 0.433
69.5700 0.466
69.5866 0.521
69.6031 0.444
69.6197 0.488
69.6362 0.466
69.6527 0.482
69.6693 0.384
69.6858 0.449
69.7024 0.389
69.7189 0.411
69.7355 0.411
69.7520 0.564
69.7686 0.460
69.7851 0.482
69.8017 0.493
69.8182 0.493
69.8347 0.395
69.8513 0.460
69.8678 0.378
69.8844 0.405
69.9009 0.515
69.9175 0.488
69.9340 0.373
69.9506 0.416
69.9671 0.548
69.9837 0.499
70.0002 0.499
