'Id: "" Comment: "" Operator: "Administrator" Anode: "Cu" Scantype: "Locked Coupled" TimePerStep: "182.5" X: "0" Y: "0" Z: "0" 
20.0000 2.340
20.0165 2.477
20.0331 2.356
20.0496 2.586
20.0662 2.816
20.0827 2.696
20.0993 2.438
20.1158 2.641
20.1324 2.603
20.1489 2.636
20.1655 2.416
20.1820 2.658
20.1985 2.460
20.2151 2.422
20.2316 2.553
20.2482 2.614
20.2647 2.510
20.2813 2.466
20.2978 2.411
20.3144 2.482
20.3309 2.389
20.3475 2.723
20.3640 2.603
20.3805 2.438
20.3971 2.614
20.4136 2.411
20.4302 2.268
20.4467 2.416
20.4633 2.636
20.4798 2.482
20.4964 2.449
20.5129 2.460
20.5295 2.444
20.5460 2.526
20.5625 2.279
20.5791 2.411
20.5956 2.532
20.6122 2.477
20.6287 2.340
20.6453 2.427
20.6618 2.274
20.6784 2.416
20.6949 2.444
20.7115 2.630
20.7280 2.268
20.7445 2.296
20.7611 2.499
20.7776 2.312
20.7942 2.378
20.8107 2.340
20.8273 2.444
20.8438 2.542
20.8604 2.340
20.8769 2.389
20.8935 2.477
20.9100 2.340
20.9265 2.340
20.9431 2.455
20.9596 2.416
20.9762 2.444
20.9927 2.236
21.0093 2.274
21.0258 2.521
21.0424 2.504
21.0589 2.395
21.0755 2.367
21.0920 2.241
21.1085 2.647
21.1251 2.449
21.1416 2.263
21.1582 2.477
21.1747 2.471
21.1913 2.559
21.2078 2.548
21.2244 2.405
21.2409 2.274
21.2575 2.367
21.2740 2.378
21.2905 2.466
21.3071 2.159
21.3236 2.263
21.3402 2.340
21.3567 2.537
21.3733 2.586
21.3898 2.093
21.4064 2.427
21.4229 2.559
21.4394 2.526
21.4560 2.455
21.4725 2.334
21.4891 2.378
21.5056 2.345
21.5222 2.263
21.5387 2.367
21.5553 2.307
21.5718 2.345
21.5884 2.334
21.6049 2.307
21.6214 2.258
21.6380 2.203
21.6545 2.625
21.6711 2.285
21.6876 2.367
21.7042 2.334
21.7207 2.290
21.7373 2.285
21.7538 2.499
21.7704 2.389
21.7869 2.219
21.8034 2.455
21.8200 2.438
21.8365 2.208
21.8531 2.318
21.8696 2.290
21.8862 2.033
21.9027 2.175
21.9193 2.504
21.9358 2.340
21.9524 2.444
21.9689 2.312
21.9854 2.329
22.0020 2.400
22.0185 2.192
22.0351 2.247
22.0516 2.192
22.0682 2.192
22.0847 2.241
22.1013 2.296
22.1178 2.225
22.1344 2.225
22.1509 2.192
22.1674 2.405
22.1840 2.236
22.2005 2.241
22.2171 2.362
22.2336 2.444
22.2502 2.126
22.2667 2.219
22.2833 2.345
22.2998 2.104
22.3164 2.279
22.3329 2.110
22.3494 2.137
22.3660 2.071
22.3825 2.208
22.3991 2.186
22.4156 2.121
22.4322 1.962
22.4487 2.186
22.4653 1.940
22.4818 2.258
22.4984 2.192
22.5149 2.170
22.5314 2.137
22.5480 2.170
22.5645 2.088
22.5811 2.066
22.5976 2.356
22.6142 2.121
22.6307 2.082
22.6473 2.219
22.6638 2.203
22.6804 2.027
22.6969 2.126
22.7134 2.082
22.7300 2.022
22.7465 2.175
22.7631 2.236
22.7796 2.104
22.7962 2.082
22.8127 2.142
22.8293 2.115
22.8458 2.148
22.8624 2.060
22.8789 1.984
22.8954 2.252
22.9120 2.027
22.9285 2.033
22.9451 2.263
22.9616 2.208
22.9782 2.038
22.9947 2.093
23.0113 2.159
23.0278 2.110
23.0444 2.110
23.0609 2.055
23.0774 2.181
23.0940 2.132
23.1105 2.049
23.1271 2.247
23.1436 2.236
23.1602 2.142
23.1767 1.847
23.1933 1.951
23.2098 1.841
23.2264 2.005
23.2429 1.896
23.2594 1.808
23.2760 2.077
23.2925 2.082
23.3091 2.203
23.3256 2.055
23.3422 1.984
23.3587 2.038
23.3753 2.225
23.3918 2.340
23.4084 2.055
23.4249 2.011
23.4414 2.011
23.4580 2.181
23.4745 2.060
23.4911 2.121
23.5076 1.984
23.5242 1.929
23.5407 1.901
23.5573 1.759
23.5738 1.896
23.5904 2.022
23.6069 1.989
23.6234 2.159
23.6400 2.186
23.6565 2.077
23.6731 1.984
23.6896 1.995
23.7062 2.077
23.7227 2.049
23.7393 2.137
23.7558 1.918
23.7724 2.016
23.7889 2.378
23.8054 2.279
23.8220 2.088
23.8385 1.995
23.8551 2.252
23.8716 2.482
23.8882 2.126
23.9047 2.225
23.9213 2.203
23.9378 2.340
23.9544 2.247
23.9709 2.258
23.9874 2.099
24.0040 2.504
24.0205 2.570
24.0371 2.400
24.0536 2.515
24.0702 2.356
24.0867 2.367
24.1033 2.351
24.1198 2.334
24.1364 2.301
24.1529 2.416
24.1694 2.362
24.1860 2.608
24.2025 2.647
24.2191 2.405
24.2356 2.460
24.2522 2.318
24.2687 2.400
24.2853 2.647
24.3018 2.510
24.3183 2.581
24.3349 2.471
24.3514 2.553
24.3680 2.630
24.3845 2.499
24.4011 2.499
24.4176 2.581
24.4342 2.499
24.4507 2.586
24.4673 2.784
24.4838 2.488
24.5003 2.542
24.5169 2.603
24.5334 2.482
24.5500 2.690
24.5665 2.499
24.5831 2.805
24.5996 2.668
24.6162 2.679
24.6327 2.318
24.6493 2.499
24.6658 2.975
24.6823 2.756
24.6989 2.674
24.7154 2.378
24.7320 2.548
24.7485 2.827
24.7651 2.773
24.7816 2.762
24.7982 2.784
24.8147 2.740
24.8313 2.685
24.8478 2.652
24.8643 2.586
24.8809 2.570
24.8974 2.679
24.9140 2.926
24.9305 2.833
24.9471 2.652
24.9636 2.630
24.9802 2.767
24.9967 2.789
25.0133 2.816
25.0298 2.641
25.0463 2.652
25.0629 2.690
25.0794 2.888
25.0960 2.668
25.1125 2.795
25.1291 2.975
25.1456 3.485
25.1622 2.953
25.1787 3.129
25.1953 3.299
25.2118 3.205
25.2283 3.666
25.2449 3.463
25.2614 3.890
25.2780 3.989
25.2945 4.126
25.3111 4.438
25.3276 5.003
25.3442 5.375
25.3607 5.989
25.3773 7.238
25.3938 8.022
25.4103 9.079
25.4269 11.540
25.4434 13.814
25.4600 17.967
25.4765 22.274
25.4931 27.403
25.5096 32.838
25.5262 36.948
25.5427 36.395
25.5593 34.477
25.5758 30.871
25.5923 26.784
25.6089 22.575
25.6254 17.008
25.6420 13.567
25.6585 10.104
25.6751 7.414
25.6916 6.296
25.7082 4.975
25.7247 4.312
25.7413 3.836
25.7578 3.529
25.7743 3.518
25.7909 3.134
25.8074 3.112
25.8240 2.986
25.8405 2.729
25.8571 3.019
25.8736 2.701
25.8902 2.619
25.9067 2.504
25.9233 2.619
25.9398 2.564
25.9563 2.504
25.9729 2.422
25.9894 2.586
26.0060 2.367
26.0225 2.449
26.0391 2.586
26.0556 2.570
26.0722 2.444
26.0887 2.433
26.1053 2.422
26.1218 2.384
26.1383 2.488
26.1549 2.438
26.1714 2.351
26.1880 2.351
26.2045 2.279
26.2211 2.296
26.2376 2.197
26.2542 2.033
26.2707 2.384
26.2873 2.236
26.3038 2.192
26.3203 2.438
26.3369 2.181
26.3534 2.077
26.3700 2.219
26.3865 2.088
26.4031 2.219
26.4196 2.164
26.4362 2.060
26.4527 2.186
26.4693 2.247
26.4858 2.181
26.5023 2.263
26.5189 2.077
26.5354 2.290
26.5520 2.263
26.5685 2.148
26.5851 2.296
26.6016 2.066
26.6182 2.115
26.6347 1.978
26.6513 2.071
26.6678 2.192
26.6843 1.940
26.7009 2.088
26.7174 2.005
26.7340 1.797
26.7505 2.175
26.7671 2.099
26.7836 2.132
26.8002 2.153
26.8167 2.088
26.8333 2.060
26.8498 2.241
26.8663 2.088
26.8829 1.885
26.8994 2.099
26.9160 2.066
26.9325 2.164
26.9491 2.241
26.9656 1.978
26.9822 1.995
26.9987 2.038
27.0152 2.082
27.0318 2.005
27.0483 2.033
27.0649 2.142
27.0814 1.918
27.0980 2.060
27.1145 2.110
27.1311 1.907
27.1476 1.775
27.1642 1.956
27.1807 2.077
27.1972 1.940
27.2138 1.912
27.2303 1.951
27.2469 2.077
27.2634 2.099
27.2800 1.995
27.2965 1.726
27.3131 2.066
27.3296 1.868
27.3462 2.000
27.3627 1.912
27.3792 1.995
27.3958 2.016
27.4123 1.956
27.4289 2.066
27.4454 2.104
27.4620 1.764
27.4785 1.879
27.4951 1.852
27.5116 1.885
27.5282 1.737
27.5447 1.825
27.5612 1.901
27.5778 1.808
27.5943 1.863
27.6109 1.819
27.6274 2.115
27.6440 1.956
27.6605 1.918
27.6771 1.918
27.6936 1.890
27.7102 1.858
27.7267 1.797
27.7432 1.901
27.7598 1.704
27.7763 1.682
27.7929 1.863
27.8094 1.956
27.8260 1.797
27.8425 1.929
27.8591 1.775
27.8756 1.858
27.8922 1.863
27.9087 1.890
27.9252 1.836
27.9418 1.759
27.9583 1.699
27.9749 1.655
27.9914 1.879
28.0080 1.781
28.0245 1.786
28.0411 1.775
28.0576 1.633
28.0742 1.753
28.0907 1.803
28.1072 1.627
28.1238 1.781
28.1403 1.797
28.1569 1.699
28.1734 1.660
28.1900 1.764
28.2065 1.742
28.2231 1.710
28.2396 1.732
28.2562 1.693
28.2727 1.753
28.2892 1.704
28.3058 1.721
28.3223 1.710
28.3389 1.764
28.3554 1.863
28.3720 1.534
28.3885 1.649
28.4051 1.666
28.4216 1.677
28.4382 1.677
28.4547 1.710
28.4712 1.616
28.4878 1.633
28.5043 1.584
28.5209 1.764
28.5374 1.567
28.5540 1.704
28.5705 1.529
28.5871 1.523
28.6036 1.715
28.6202 1.496
28.6367 1.616
28.6532 1.578
28.6698 1.649
28.6863 1.359
28.7029 1.512
28.7194 1.490
28.7360 1.512
28.7525 1.342
28.7691 1.693
28.7856 1.474
28.8022 1.710
28.8187 1.403
28.8352 1.529
28.8518 1.463
28.8683 1.534
28.8849 1.605
28.9014 1.430
28.9180 1.556
28.9345 1.556
28.9511 1.430
28.9676 1.512
28.9842 1.430
29.0007 1.523
29.0172 1.638
29.0338 1.551
29.0503 1.803
29.0669 1.479
29.0834 1.584
29.1000 1.605
29.1165 1.595
29.1331 1.479
29.1496 1.458
29.1662 1.644
29.1827 1.321
29.1992 1.512
29.2158 1.501
29.2323 1.622
29.2489 1.605
29.2654 1.540
29.2820 1.490
29.2985 1.463
29.3151 1.447
29.3316 1.299
29.3482 1.479
29.3647 1.288
29.3812 1.452
29.3978 1.299
29.4143 1.447
29.4309 1.397
29.4474 1.452
29.4640 1.447
29.4805 1.523
29.4971 1.474
29.5136 1.364
29.5302 1.381
29.5467 1.501
29.5632 1.474
29.5798 1.485
29.5963 1.458
29.6129 1.540
29.6294 1.452
29.6460 1.304
29.6625 1.310
29.6791 1.534
29.6956 1.512
29.7121 1.452
29.7287 1.408
29.7452 1.479
29.7618 1.359
29.7783 1.501
29.7949 1.408
29.8114 1.364
29.8280 1.299
29.8445 1.474
29.8611 1.386
29.8776 1.348
29.8941 1.633
29.9107 1.326
29.9272 1.397
29.9438 1.479
29.9603 1.299
29.9769 1.419
29.9934 1.200
30.0100 1.277
30.0265 1.408
30.0431 1.392
30.0596 1.458
30.0761 1.408
30.0927 1.392
30.1092 1.299
30.1258 1.304
30.1423 1.353
30.1589 1.151
30.1754 1.397
30.1920 1.342
30.2085 1.156
30.2251 1.255
30.2416 1.370
30.2581 1.386
30.2747 1.299
30.2912 1.310
30.3078 1.441
30.3243 1.397
30.3409 1.326
30.3574 1.332
30.3740 1.282
30.3905 1.293
30.4071 1.293
30.4236 1.271
30.4401 1.222
30.4567 1.178
30.4732 1.255
30.4898 1.310
30.5063 1.310
30.5229 1.342
30.5394 1.266
30.5560 1.381
30.5725 1.529
30.5891 1.342
30.6056 1.326
30.6221 1.260
30.6387 1.562
30.6552 1.052
30.6718 1.173
30.6883 1.364
30.7049 1.249
30.7214 1.337
30.7380 1.266
30.7545 1.184
30.7711 1.523
30.7876 1.205
30.8041 1.211
30.8207 1.184
30.8372 1.414
30.8538 1.244
30.8703 1.036
30.8869 1.342
30.9034 1.370
30.9200 1.249
30.9365 1.178
30.9531 1.266
30.9696 1.184
30.9861 1.271
31.0027 1.408
31.0192 1.271
31.0358 1.321
31.0523 1.200
31.0689 1.255
31.0854 1.321
31.1020 1.375
31.1185 1.255
31.1351 1.315
31.1516 1.342
31.1681 1.348
31.1847 1.167
31.2012 1.348
31.2178 1.293
31.2343 1.249
31.2509 1.140
31.2674 1.216
31.2840 1.129
31.3005 1.288
31.3171 1.271
31.3336 1.260
31.3501 1.156
31.3667 1.195
31.3832 1.238
31.3998 1.151
31.4163 1.397
31.4329 1.293
31.4494 1.271
31.4660 1.266
31.4825 1.195
31.4991 1.397
31.5156 1.173
31.5321 1.293
31.5487 1.233
31.5652 1.266
31.5818 1.184
31.5983 1.408
31.6149 1.397
31.6314 1.271
31.6480 1.348
31.6645 1.156
31.6811 1.205
31.6976 1.090
31.7141 1.216
31.7307 1.195
31.7472 1.266
31.7638 1.227
31.7803 1.211
31.7969 1.222
31.8134 1.299
31.8300 1.052
31.8465 1.036
31.8631 1.145
31.8796 1.074
31.8961 1.140
31.9127 1.156
31.9292 1.101
31.9458 1.244
31.9623 1.068
31.9789 1.222
31.9954 1.151
32.0120 1.200
32.0285 1.145
32.0451 1.123
32.0616 1.216
32.0781 1.162
32.0947 1.085
32.1112 1.244
32.1278 1.211
32.1443 1.189
32.1609 1.129
32.1774 1.205
32.1940 1.233
32.2105 1.222
32.2271 1.200
32.2436 0.981
32.2601 1.052
32.2767 1.184
32.2932 1.216
32.3098 1.211
32.3263 1.058
32.3429 1.255
32.3594 1.058
32.3760 1.211
32.3925 1.096
32.4091 1.129
32.4256 1.184
32.4421 1.140
32.4587 1.063
32.4752 1.063
32.4918 1.090
32.5083 1.090
32.5249 1.107
32.5414 1.167
32.5580 1.112
32.5745 1.079
32.5910 0.970
32.6076 1.079
32.6241 1.118
32.6407 1.019
32.6572 1.003
32.6738 1.222
32.6903 1.134
32.7069 1.036
32.7234 1.145
32.7400 0.975
32.7565 1.090
32.7730 0.926
32.7896 1.156
32.8061 1.107
32.8227 1.058
32.8392 1.074
32.8558 1.019
32.8723 1.025
32.8889 1.145
32.9054 1.255
32.9220 1.123
32.9385 1.019
32.9550 1.173
32.9716 1.025
32.9881 1.222
33.0047 1.008
33.0212 1.123
33.0378 1.134
33.0543 0.893
33.0709 0.926
33.0874 1.134
33.1040 1.156
33.1205 1.140
33.1370 1.244
33.1536 1.063
33.1701 0.992
33.1867 1.090
33.2032 1.189
33.2198 1.156
33.2363 1.167
33.2529 1.079
33.2694 1.014
33.2860 1.058
33.3025 0.822
33.3190 1.074
33.3356 1.019
33.3521 1.058
33.3687 1.140
33.3852 1.118
33.4018 1.014
33.4183 0.992
33.4349 1.041
33.4514 1.014
33.4680 1.156
33.4845 1.068
33.5010 1.019
33.5176 1.200
33.5341 1.118
33.5507 1.195
33.5672 1.025
33.5838 1.090
33.6003 1.151
33.6169 1.112
33.6334 1.058
33.6500 1.107
33.6665 1.156
33.6830 1.047
33.6996 1.025
33.7161 1.107
33.7327 1.123
33.7492 0.986
33.7658 1.129
33.7823 1.277
33.7989 1.211
33.8154 1.101
33.8320 1.096
33.8485 1.260
33.8650 1.277
33.8816 1.145
33.8981 1.167
33.9147 1.342
33.9312 1.359
33.9478 1.315
33.9643 1.299
33.9809 1.414
33.9974 1.408
34.0140 1.178
34.0305 1.277
34.0470 1.288
34.0636 1.189
34.0801 1.173
34.0967 1.222
34.1132 1.118
34.1298 1.266
34.1463 1.129
34.1629 1.184
34.1794 1.233
34.1960 1.375
34.2125 1.342
34.2290 1.299
34.2456 1.222
34.2621 1.233
34.2787 1.397
34.2952 1.288
34.3118 1.337
34.3283 1.342
34.3449 1.315
34.3614 1.260
34.3780 1.348
34.3945 1.348
34.4110 1.567
34.4276 1.359
34.4441 1.474
34.4607 1.523
34.4772 1.288
34.4938 1.425
34.5103 1.337
34.5269 1.408
34.5434 1.573
34.5600 1.578
34.5765 1.447
34.5930 1.633
34.6096 1.775
34.6261 1.748
34.6427 1.797
34.6592 1.934
34.6758 2.038
34.6923 2.011
34.7089 2.323
34.7254 2.307
34.7420 2.247
34.7585 2.564
34.7750 2.701
34.7916 2.992
34.8081 3.348
34.8247 3.901
34.8412 4.636
34.8578 4.871
34.8743 4.838
34.8909 6.373
34.9074 7.605
34.9240 8.422
34.9405 9.885
34.9570 12.121
34.9736 14.718
34.9901 17.879
35.0067 22.499
35.0232 27.392
35.0398 34.395
35.0563 42.038
35.0729 46.345
35.0894 49.041
35.1060 47.326
35.1225 42.619
35.1390 35.973
35.1556 31.441
35.1721 29.293
35.1887 26.279
35.2052 20.844
35.2218 15.600
35.2383 11.090
35.2549 7.562
35.2714 6.208
35.2879 4.712
35.3045 4.159
35.3210 3.534
35.3376 3.047
35.3541 2.745
35.3707 2.323
35.3872 2.236
35.4038 2.115
35.4203 2.077
35.4369 1.896
35.4534 1.764
35.4699 1.649
35.4865 1.858
35.5030 1.589
35.5196 1.699
35.5361 1.649
35.5527 1.556
35.5692 1.485
35.5858 1.479
35.6023 1.332
35.6189 1.364
35.6354 1.562
35.6519 1.540
35.6685 1.326
35.6850 1.244
35.7016 1.271
35.7181 1.255
35.7347 1.299
35.7512 1.304
35.7678 1.353
35.7843 1.260
35.8009 1.145
35.8174 1.195
35.8339 1.249
35.8505 1.222
35.8670 1.162
35.8836 1.299
35.9001 0.986
35.9167 1.178
35.9332 1.271
35.9498 1.189
35.9663 1.211
35.9829 1.195
35.9994 1.178
36.0159 1.227
36.0325 1.200
36.0490 1.058
36.0656 1.107
36.0821 1.255
36.0987 1.068
36.1152 1.047
36.1318 1.107
36.1483 1.277
36.1649 1.085
36.1814 1.227
36.1979 1.211
36.2145 1.008
36.2310 1.014
36.2476 1.195
36.2641 1.063
36.2807 1.101
36.2972 1.085
36.3138 1.068
36.3303 1.063
36.3469 1.014
36.3634 1.162
36.3799 1.249
36.3965 1.227
36.4130 1.266
36.4296 1.151
36.4461 1.025
36.4627 1.079
36.4792 1.129
36.4958 1.090
36.5123 0.992
36.5289 0.992
36.5454 1.118
36.5619 1.238
36.5785 1.096
36.5950 1.058
36.6116 1.047
36.6281 0.997
36.6447 1.107
36.6612 1.145
36.6778 1.123
36.6943 1.156
36.7109 1.348
36.7274 1.167
36.7439 1.244
36.7605 1.052
36.7770 1.047
36.7936 1.096
36.8101 1.112
36.8267 1.140
36.8432 1.101
36.8598 1.068
36.8763 1.178
36.8929 1.107
36.9094 1.058
36.9259 1.129
36.9425 1.134
36.9590 1.315
36.9756 1.074
36.9921 1.112
37.0087 1.288
37.0252 1.178
37.0418 1.167
37.0583 1.195
37.0749 1.178
37.0914 1.140
37.1079 1.238
37.1245 1.173
37.1410 1.255
37.1576 1.370
37.1741 1.162
37.1907 1.392
37.2072 1.030
37.2238 1.216
37.2403 1.277
37.2569 1.348
37.2734 1.392
37.2899 1.310
37.3065 1.178
37.3230 1.359
37.3396 1.375
37.3561 1.397
37.3727 1.392
37.3892 1.518
37.4058 1.792
37.4223 2.121
37.4389 1.764
37.4554 2.258
37.4719 2.521
37.4885 2.723
37.5050 2.953
37.5216 3.173
37.5381 3.912
37.5547 4.164
37.5712 4.964
37.5878 5.995
37.6043 6.964
37.6209 8.318
37.6374 10.652
37.6539 12.773
37.6705 15.474
37.6870 18.137
37.7036 19.529
37.7201 20.225
37.7367 18.159
37.7532 15.918
37.7698 13.534
37.7863 12.707
37.8029 11.688
37.8194 10.581
37.8359 8.734
37.8525 6.948
37.8690 5.019
37.8856 3.814
37.9021 2.959
37.9187 2.433
37.9352 1.879
37.9518 1.885
37.9683 1.929
37.9848 1.622
38.0014 1.425
38.0179 1.616
38.0345 1.332
38.0510 1.271
38.0676 1.162
38.0841 1.403
38.1007 1.222
38.1172 1.282
38.1338 1.310
38.1503 1.090
38.1668 1.255
38.1834 1.140
38.1999 1.205
38.2165 1.058
38.2330 1.090
38.2496 0.964
38.2661 0.882
38.2827 0.926
38.2992 1.003
38.3158 0.986
38.3323 1.090
38.3488 1.047
38.3654 1.014
38.3819 1.063
38.3985 1.123
38.4150 0.932
38.4316 1.058
38.4481 1.090
38.4647 0.942
38.4812 0.805
38.4978 0.986
38.5143 0.970
38.5308 0.948
38.5474 0.948
38.5639 0.975
38.5805 0.992
38.5970 1.052
38.6136 0.953
38.6301 0.981
38.6467 0.871
38.6632 0.822
38.6798 0.992
38.6963 0.849
38.7128 0.893
38.7294 0.893
38.7459 1.074
38.7625 0.948
38.7790 1.118
38.7956 1.008
38.8121 0.904
38.8287 1.025
38.8452 1.003
38.8618 1.041
38.8783 1.003
38.8948 1.058
38.9114 1.162
38.9279 1.014
38.9445 0.992
38.9610 1.003
38.9776 1.085
38.9941 0.959
39.0107 0.910
39.0272 1.003
39.0438 0.877
39.0603 0.860
39.0768 0.964
39.0934 0.981
39.1099 0.959
39.1265 0.910
39.1430 0.838
39.1596 0.970
39.1761 0.942
39.1927 0.877
39.2092 0.893
39.2258 0.855
39.2423 0.921
39.2588 0.904
39.2754 0.844
39.2919 0.932
39.3085 0.942
39.3250 0.959
39.3416 0.915
39.3581 0.926
39.3747 0.910
39.3912 0.871
39.4078 0.899
39.4243 0.860
39.4408 0.811
39.4574 0.932
39.4739 0.811
39.4905 0.992
39.5070 1.052
39.5236 0.849
39.5401 0.844
39.5567 0.707
39.5732 0.921
39.5898 0.942
39.6063 0.942
39.6228 0.948
39.6394 0.937
39.6559 0.827
39.6725 0.860
39.6890 0.844
39.7056 0.926
39.7221 0.893
39.7387 0.942
39.7552 0.855
39.7718 0.964
39.7883 0.827
39.8048 0.855
39.8214 0.762
39.8379 0.932
39.8545 0.800
39.8710 0.893
39.8876 0.805
39.9041 0.789
39.9207 0.838
39.9372 0.910
39.9538 0.745
39.9703 0.882
39.9868 0.833
40.0034 0.932
40.0199 0.910
40.0365 0.833
40.0530 0.855
40.0696 0.729
40.0861 0.701
40.1027 0.762
40.1192 0.751
40.1358 0.762
40.1523 0.942
40.1688 0.937
40.1854 0.849
40.2019 0.795
40.2185 0.921
40.2350 0.838
40.2516 0.844
40.2681 0.762
40.2847 0.970
40.3012 0.849
40.3178 0.860
40.3343 0.986
40.3508 0.899
40.3674 0.805
40.3839 0.805
40.4005 0.762
40.4170 0.762
40.4336 0.685
40.4501 0.855
40.4667 0.948
40.4832 0.844
40.4998 0.838
40.5163 0.860
40.5328 0.773
40.5494 0.800
40.5659 0.707
40.5825 0.751
40.5990 0.827
40.6156 0.773
40.6321 0.838
40.6487 0.767
40.6652 0.707
40.6818 0.926
40.6983 0.784
40.7148 0.778
40.7314 0.762
40.7479 0.800
40.7645 0.816
40.7810 0.800
40.7976 0.871
40.8141 0.805
40.8307 0.849
40.8472 0.866
40.8637 0.740
40.8803 0.833
40.8968 0.773
40.9134 0.767
40.9299 0.855
40.9465 0.827
40.9630 0.723
40.9796 0.816
40.9961 0.838
41.0127 0.756
41.0292 0.679
41.0457 0.992
41.0623 0.849
41.0788 0.784
41.0954 0.778
41.1119 0.789
41.1285 0.789
41.1450 0.822
41.1616 0.871
41.1781 0.816
41.1947 0.674
41.2112 0.877
41.2277 0.997
41.2443 0.805
41.2608 0.871
41.2774 0.827
41.2939 0.756
41.3105 0.674
41.3270 0.789
41.3436 0.800
41.3601 0.816
41.3767 0.729
41.3932 0.893
41.4097 0.871
41.4263 0.921
41.4428 0.827
41.4594 0.953
41.4759 0.997
41.4925 1.151
41.5090 1.074
41.5256 0.986
41.5421 1.085
41.5587 1.145
41.5752 1.332
41.5917 1.260
41.6083 1.200
41.6248 1.419
41.6414 1.282
41.6579 1.052
41.6745 1.162
41.6910 1.189
41.7076 1.238
41.7241 1.096
41.7407 1.151
41.7572 1.014
41.7737 1.090
41.7903 1.129
41.8068 0.986
41.8234 1.019
41.8399 0.981
41.8565 0.860
41.8730 0.964
41.8896 1.085
41.9061 1.030
41.9227 0.921
41.9392 0.932
41.9557 1.025
41.9723 1.030
41.9888 0.888
42.0054 0.937
42.0219 0.926
42.0385 1.025
42.0550 0.849
42.0716 1.096
42.0881 0.882
42.1047 0.992
42.1212 0.997
42.1377 1.058
42.1543 1.014
42.1708 1.173
42.1874 0.986
42.2039 0.778
42.2205 0.932
42.2370 1.140
42.2536 0.948
42.2701 1.063
42.2867 0.970
42.3032 1.058
42.3197 0.942
42.3363 0.937
42.3528 0.981
42.3694 1.041
42.3859 1.123
42.4025 1.063
42.4190 1.074
42.4356 0.904
42.4521 1.041
42.4687 1.074
42.4852 0.970
42.5017 1.101
42.5183 1.205
42.5348 1.074
42.5514 1.238
42.5679 1.134
42.5845 1.112
42.6010 1.085
42.6176 1.233
42.6341 1.173
42.6507 1.178
42.6672 1.096
42.6837 1.370
42.7003 1.271
42.7168 1.260
42.7334 1.277
42.7499 1.266
42.7665 1.452
42.7830 1.501
42.7996 1.584
42.8161 1.638
42.8327 1.759
42.8492 1.638
42.8657 1.858
42.8823 1.896
42.8988 2.170
42.9154 2.389
42.9319 2.795
42.9485 2.767
42.9650 3.107
42.9816 3.627
42.9981 3.868
43.0147 4.208
43.0312 5.068
43.0477 5.359
43.0643 6.214
43.0808 7.622
43.0974 8.581
43.1139 9.452
43.1305 11.184
43.1470 13.742
43.1636 16.203
43.1801 19.836
43.1967 24.312
43.2132 28.926
43.2297 34.986
43.2463 41.868
43.2628 46.871
43.2794 48.323
43.2959 45.408
43.3125 40.121
43.3290 33.611
43.3456 29.518
43.3621 27.973
43.3787 27.732
43.3952 25.485
43.4117 21.721
43.4283 17.003
43.4448 12.553
43.4614 8.899
43.4779 6.559
43.4945 4.745
43.5110 4.093
43.5276 3.403
43.5441 2.981
43.5606 2.690
43.5772 2.455
43.5937 2.175
43.6103 1.874
43.6268 1.726
43.6434 1.573
43.6599 1.556
43.6765 1.589
43.6930 1.677
43.7096 1.414
43.7261 1.244
43.7426 1.496
43.7592 1.359
43.7757 1.337
43.7923 1.112
43.8088 1.271
43.8254 1.216
43.8419 1.227
43.8585 1.266
43.8750 1.216
43.8916 1.090
43.9081 1.101
43.9246 1.025
43.9412 1.162
43.9577 1.107
43.9743 1.025
43.9908 0.997
44.0074 0.910
44.0239 1.195
44.0405 0.942
44.0570 0.866
44.0736 1.025
44.0901 0.981
44.1066 0.942
44.1232 0.975
44.1397 0.915
44.1563 0.992
44.1728 0.926
44.1894 0.915
44.2059 0.959
44.2225 0.844
44.2390 0.811
44.2556 1.063
44.2721 0.745
44.2886 0.805
44.3052 0.921
44.3217 0.849
44.3383 0.838
44.3548 0.860
44.3714 0.910
44.3879 0.975
44.4045 0.904
44.4210 0.921
44.4376 0.784
44.4541 0.838
44.4706 0.734
44.4872 0.800
44.5037 0.948
44.5203 0.953
44.5368 0.877
44.5534 0.762
44.5699 0.904
44.5865 0.860
44.6030 0.964
44.6196 0.816
44.6361 0.882
44.6526 0.959
44.6692 0.932
44.6857 0.800
44.7023 0.849
44.7188 0.932
44.7354 0.899
44.7519 0.805
44.7685 0.866
44.7850 0.805
44.8016 0.893
44.8181 0.756
44.8346 0.767
44.8512 0.707
44.8677 0.800
44.8843 0.734
44.9008 0.805
44.9174 0.712
44.9339 0.827
44.9505 0.789
44.9670 0.833
44.9836 0.652
45.0001 0.756
45.0166 0.838
45.0332 0.630
45.0497 0.756
45.0663 0.762
45.0828 0.701
45.0994 0.762
45.1159 0.795
45.1325 0.822
45.1490 0.718
45.1656 0.953
45.1821 0.751
45.1986 0.904
45.2152 0.789
45.2317 0.816
45.2483 0.844
45.2648 0.893
45.2814 0.756
45.2979 0.778
45.3145 0.729
45.3310 0.767
45.3476 0.849
45.3641 0.822
45.3806 0.778
45.3972 0.707
45.4137 0.778
45.4303 0.888
45.4468 0.899
45.4634 0.701
45.4799 0.816
45.4965 0.701
45.5130 0.767
45.5296 0.778
45.5461 0.734
45.5626 0.838
45.5792 0.833
45.5957 0.636
45.6123 0.773
45.6288 0.647
45.6454 0.816
45.6619 0.805
45.6785 0.778
45.6950 0.833
45.7116 0.784
45.7281 0.773
45.7446 0.751
45.7612 0.816
45.7777 0.652
45.7943 0.756
45.8108 0.795
45.8274 0.822
45.8439 0.756
45.8605 0.756
45.8770 0.734
45.8936 0.811
45.9101 0.937
45.9266 0.877
45.9432 0.893
45.9597 0.795
45.9763 0.975
45.9928 0.937
46.0094 1.025
46.0259 0.937
46.0425 1.068
46.0590 1.140
46.0756 1.184
46.0921 1.282
46.1086 1.227
46.1252 1.173
46.1417 1.101
46.1583 0.964
46.1748 0.981
46.1914 1.041
46.2079 0.953
46.2245 1.112
46.2410 1.003
46.2575 0.888
46.2741 0.849
46.2906 0.866
46.3072 0.811
46.3237 0.723
46.3403 0.679
46.3568 0.833
46.3734 0.729
46.3899 0.729
46.4065 0.712
46.4230 0.751
46.4395 0.762
46.4561 0.625
46.4726 0.641
46.4892 0.564
46.5057 0.679
46.5223 0.696
46.5388 0.690
46.5554 0.685
46.5719 0.668
46.5885 0.734
46.6050 0.800
46.6215 0.685
46.6381 0.707
46.6546 0.729
46.6712 0.701
46.6877 0.668
46.7043 0.778
46.7208 0.668
46.7374 0.679
46.7539 0.718
46.7705 0.811
46.7870 0.816
46.8035 0.679
46.8201 0.778
46.8366 0.729
46.8532 0.690
46.8697 0.751
46.8863 0.652
46.9028 0.674
46.9194 0.685
46.9359 0.740
46.9525 0.800
46.9690 0.734
46.9855 0.833
47.0021 0.685
47.0186 0.767
47.0352 0.718
47.0517 0.822
47.0683 0.756
47.0848 0.734
47.1014 0.838
47.1179 0.712
47.1345 0.707
47.1510 0.789
47.1675 0.625
47.1841 0.745
47.2006 0.663
47.2172 0.734
47.2337 0.707
47.2503 0.718
47.2668 0.690
47.2834 0.614
47.2999 0.586
47.3165 0.636
47.3330 0.723
47.3495 0.668
47.3661 0.690
47.3826 0.668
47.3992 0.641
47.4157 0.471
47.4323 0.740
47.4488 0.636
47.4654 0.729
47.4819 0.630
47.4985 0.707
47.5150 0.663
47.5315 0.619
47.5481 0.701
47.5646 0.679
47.5812 0.701
47.5977 0.652
47.6143 0.762
47.6308 0.636
47.6474 0.619
47.6639 0.674
47.6805 0.652
47.6970 0.625
47.7135 0.723
47.7301 0.685
47.7466 0.723
47.7632 0.679
47.7797 0.696
47.7963 0.658
47.8128 0.652
47.8294 0.707
47.8459 0.619
47.8625 0.510
47.8790 0.608
47.8955 0.608
47.9121 0.553
47.9286 0.674
47.9452 0.586
47.9617 0.636
47.9783 0.663
47.9948 0.696
48.0114 0.603
48.0279 0.652
48.0445 0.734
48.0610 0.559
48.0775 0.597
48.0941 0.641
48.1106 0.586
48.1272 0.729
48.1437 0.625
48.1603 0.592
48.1768 0.723
48.1934 0.663
48.2099 0.762
48.2265 0.510
48.2430 0.701
48.2595 0.773
48.2761 0.488
48.2926 0.707
48.3092 0.707
48.3257 0.636
48.3423 0.674
48.3588 0.592
48.3754 0.740
48.3919 0.636
48.4085 0.701
48.4250 0.712
48.4415 0.641
48.4581 0.603
48.4746 0.559
48.4912 0.608
48.5077 0.652
48.5243 0.581
48.5408 0.636
48.5574 0.707
48.5739 0.647
48.5905 0.679
48.6070 0.619
48.6235 0.663
48.6401 0.641
48.6566 0.619
48.6732 0.532
48.6897 0.658
48.7063 0.592
48.7228 0.647
48.7394 0.690
48.7559 0.636
48.7725 0.619
48.7890 0.652
48.8055 0.564
48.8221 0.668
48.8386 0.636
48.8552 0.707
48.8717 0.564
48.8883 0.668
48.9048 0.548
48.9214 0.553
48.9379 0.668
48.9545 0.641
48.9710 0.553
48.9875 0.597
49.0041 0.619
49.0206 0.597
49.0372 0.559
49.0537 0.603
49.0703 0.510
49.0868 0.532
49.1034 0.663
49.1199 0.537
49.1364 0.559
49.1530 0.537
49.1695 0.559
49.1861 0.597
49.2026 0.608
49.2192 0.570
49.2357 0.504
49.2523 0.586
49.2688 0.619
49.2854 0.575
49.3019 0.679
49.3184 0.570
49.3350 0.597
49.3515 0.608
49.3681 0.707
49.3846 0.526
49.4012 0.745
49.4177 0.652
49.4343 0.559
49.4508 0.548
49.4674 0.532
49.4839 0.723
49.5004 0.592
49.5170 0.668
49.5335 0.740
49.5501 0.499
49.5666 0.592
49.5832 0.614
49.5997 0.471
49.6163 0.679
49.6328 0.734
49.6494 0.559
49.6659 0.597
49.6824 0.542
49.6990 0.636
49.7155 0.608
49.7321 0.510
49.7486 0.608
49.7652 0.679
49.7817 0.603
49.7983 0.575
49.8148 0.636
49.8314 0.592
49.8479 0.630
49.8644 0.564
49.8810 0.597
49.8975 0.581
49.9141 0.570
49.9306 0.559
49.9472 0.570
49.9637 0.542
49.9803 0.581
49.9968 0.559
50.0134 0.532
50.0299 0.674
50.0464 0.570
50.0630 0.636
50.0795 0.537
50.0961 0.690
50.1126 0.608
50.1292 0.515
50.1457 0.493
50.1623 0.597
50.1788 0.647
50.1954 0.614
50.2119 0.532
50.2284 0.597
50.2450 0.679
50.2615 0.592
50.2781 0.625
50.2946 0.477
50.3112 0.658
50.3277 0.586
50.3443 0.641
50.3608 0.712
50.3774 0.597
50.3939 0.603
50.4104 0.581
50.4270 0.696
50.4435 0.685
50.4601 0.723
50.4766 0.674
50.4932 0.586
50.5097 0.685
50.5263 0.734
50.5428 0.630
50.5594 0.734
50.5759 0.652
50.5924 0.652
50.6090 0.630
50.6255 0.564
50.6421 0.526
50.6586 0.701
50.6752 0.586
50.6917 0.701
50.7083 0.603
50.7248 0.630
50.7414 0.636
50.7579 0.614
50.7744 0.679
50.7910 0.581
50.8075 0.723
50.8241 0.647
50.8406 0.679
50.8572 0.652
50.8737 0.658
50.8903 0.668
50.9068 0.707
50.9234 0.526
50.9399 0.630
50.9564 0.647
50.9730 0.619
50.9895 0.674
51.0061 0.674
51.0226 0.652
51.0392 0.597
51.0557 0.542
51.0723 0.625
51.0888 0.581
51.1054 0.734
51.1219 0.619
51.1384 0.696
51.1550 0.658
51.1715 0.663
51.1881 0.619
51.2046 0.625
51.2212 0.679
51.2377 0.668
51.2543 0.581
51.2708 0.767
51.2874 0.740
51.3039 0.636
51.3204 0.696
51.3370 0.833
51.3535 0.668
51.3701 0.795
51.3866 0.767
51.4032 0.723
51.4197 0.844
51.4363 0.729
51.4528 0.789
51.4694 0.838
51.4859 0.685
51.5024 0.685
51.5190 0.630
51.5355 0.668
51.5521 0.701
51.5686 0.734
51.5852 0.668
51.6017 0.679
51.6183 0.767
51.6348 0.734
51.6514 0.630
51.6679 0.800
51.6844 0.729
51.7010 0.641
51.7175 0.805
51.7341 0.729
51.7506 0.773
51.7672 0.751
51.7837 0.778
51.8003 0.718
51.8168 0.827
51.8333 0.800
51.8499 0.751
51.8664 0.827
51.8830 0.860
51.8995 0.860
51.9161 0.904
51.9326 0.915
51.9492 0.904
51.9657 0.953
51.9823 0.915
51.9988 0.953
52.0153 1.085
52.0319 1.162
52.0484 1.118
52.0650 1.227
52.0815 1.397
52.0981 1.479
52.1146 1.688
52.1312 1.825
52.1477 1.923
52.1643 2.011
52.1808 2.351
52.1973 2.603
52.2139 2.866
52.2304 2.932
52.2470 3.611
52.2635 3.923
52.2801 4.449
52.2966 5.249
52.3132 5.956
52.3297 7.140
52.3463 8.510
52.3628 10.214
52.3793 12.038
52.3959 13.622
52.4124 16.049
52.4290 18.625
52.4455 19.726
52.4621 20.044
52.4786 18.548
52.4952 15.907
52.5117 13.260
52.5283 12.027
52.5448 10.652
52.5613 11.068
52.5779 11.189
52.5944 10.499
52.6110 9.967
52.6275 8.071
52.6441 6.427
52.6606 4.685
52.6772 3.671
52.6937 2.647
52.7103 2.208
52.7268 1.841
52.7433 1.704
52.7599 1.381
52.7764 1.501
52.7930 1.222
52.8095 1.008
52.8261 1.140
52.8426 1.014
52.8592 1.025
52.8757 1.068
52.8923 0.904
52.9088 0.904
52.9253 0.811
52.9419 0.888
52.9584 0.904
52.9750 0.888
52.9915 0.805
53.0081 0.707
53.0246 0.663
53.0412 0.882
53.0577 0.756
53.0743 0.630
53.0908 0.740
53.1073 0.800
53.1239 0.647
53.1404 0.712
53.1570 0.608
53.1735 0.690
53.1901 0.641
53.2066 0.668
53.2232 0.679
53.2397 0.647
53.2563 0.614
53.2728 0.745
53.2893 0.712
53.3059 0.636
53.3224 0.696
53.3390 0.701
53.3555 0.658
53.3721 0.597
53.3886 0.559
53.4052 0.608
53.4217 0.614
53.4383 0.597
53.4548 0.625
53.4713 0.668
53.4879 0.586
53.5044 0.608
53.5210 0.564
53.5375 0.658
53.5541 0.570
53.5706 0.658
53.5872 0.575
53.6037 0.690
53.6203 0.663
53.6368 0.685
53.6533 0.652
53.6699 0.603
53.6864 0.674
53.7030 0.652
53.7195 0.619
53.7361 0.548
53.7526 0.603
53.7692 0.521
53.7857 0.701
53.8023 0.641
53.8188 0.608
53.8353 0.570
53.8519 0.619
53.8684 0.636
53.8850 0.586
53.9015 0.608
53.9181 0.652
53.9346 0.564
53.9512 0.586
53.9677 0.614
53.9843 0.510
54.0008 0.652
54.0173 0.575
54.0339 0.630
54.0504 0.636
54.0670 0.477
54.0835 0.608
54.1001 0.652
54.1166 0.548
54.1332 0.542
54.1497 0.641
54.1663 0.603
54.1828 0.542
54.1993 0.603
54.2159 0.619
54.2324 0.553
54.2490 0.592
54.2655 0.564
54.2821 0.603
54.2986 0.570
54.3152 0.581
54.3317 0.510
54.3483 0.641
54.3648 0.630
54.3813 0.564
54.3979 0.630
54.4144 0.559
54.4310 0.521
54.4475 0.586
54.4641 0.542
54.4806 0.592
54.4972 0.488
54.5137 0.521
54.5302 0.526
54.5468 0.542
54.5633 0.542
54.5799 0.619
54.5964 0.658
54.6130 0.570
54.6295 0.559
54.6461 0.581
54.6626 0.553
54.6792 0.564
54.6957 0.597
54.7122 0.701
54.7288 0.625
54.7453 0.586
54.7619 0.515
54.7784 0.537
54.7950 0.603
54.8115 0.592
54.8281 0.625
54.8446 0.564
54.8612 0.570
54.8777 0.466
54.8942 0.603
54.9108 0.625
54.9273 0.614
54.9439 0.614
54.9604 0.581
54.9770 0.597
54.9935 0.625
55.0101 0.608
55.0266 0.614
55.0432 0.493
55.0597 0.477
55.0762 0.542
55.0928 0.548
55.1093 0.581
55.1259 0.559
55.1424 0.619
55.1590 0.575
55.1755 0.625
55.1921 0.603
55.2086 0.658
55.2252 0.570
55.2417 0.784
55.2582 0.668
55.2748 0.696
55.2913 0.575
55.3079 0.762
55.3244 0.614
55.3410 0.603
55.3575 0.701
55.3741 0.718
55.3906 0.668
55.4072 0.784
55.4237 0.658
55.4402 0.701
55.4568 0.701
55.4733 0.701
55.4899 0.762
55.5064 0.652
55.5230 0.707
55.5395 0.674
55.5561 0.597
55.5726 0.504
55.5892 0.778
55.6057 0.581
55.6222 0.707
55.6388 0.647
55.6553 0.718
55.6719 0.641
55.6884 0.789
55.7050 0.767
55.7215 0.575
55.7381 0.647
55.7546 0.773
55.7712 0.668
55.7877 0.690
55.8042 0.603
55.8208 0.641
55.8373 0.674
55.8539 0.718
55.8704 0.707
55.8870 0.679
55.9035 0.647
55.9201 0.668
55.9366 0.833
55.9532 0.729
55.9697 0.614
55.9862 0.805
56.0028 0.652
56.0193 0.636
56.0359 0.690
56.0524 0.652
56.0690 0.592
56.0855 0.745
56.1021 0.630
56.1186 0.712
56.1352 0.652
56.1517 0.773
56.1682 0.668
56.1848 0.701
56.2013 0.701
56.2179 0.800
56.2344 0.707
56.2510 0.679
56.2675 0.696
56.2841 0.767
56.3006 0.685
56.3172 0.718
56.3337 0.663
56.3502 0.827
56.3668 0.729
56.3833 0.805
56.3999 0.762
56.4164 0.701
56.4330 0.619
56.4495 0.701
56.4661 0.751
56.4826 0.701
56.4992 0.745
56.5157 0.893
56.5322 0.833
56.5488 0.849
56.5653 0.740
56.5819 0.899
56.5984 0.811
56.6150 0.844
56.6315 0.805
56.6481 0.899
56.6646 0.822
56.6812 1.041
56.6977 1.096
56.7142 0.800
56.7308 0.893
56.7473 0.932
56.7639 1.003
56.7804 1.036
56.7970 1.019
56.8135 1.129
56.8301 1.068
56.8466 1.200
56.8632 1.249
56.8797 1.255
56.8962 1.381
56.9128 1.397
56.9293 1.364
56.9459 1.540
56.9624 1.775
56.9790 1.792
56.9955 1.989
57.0121 2.186
57.0286 2.389
57.0452 2.647
57.0617 3.123
57.0782 3.293
57.0948 3.792
57.1113 4.104
57.1279 4.625
57.1444 4.948
57.1610 5.616
57.1775 6.389
57.1941 6.860
57.2106 8.455
57.2272 9.967
57.2437 11.326
57.2602 13.058
57.2768 15.742
57.2933 19.085
57.3099 22.099
57.3264 26.340
57.3430 31.304
57.3595 34.307
57.3761 37.605
57.3926 39.304
57.4091 36.197
57.4257 31.562
57.4422 26.340
57.4588 22.323
57.4753 19.052
57.4919 19.496
57.5084 19.923
57.5250 19.940
57.5415 20.099
57.5581 19.030
57.5746 16.548
57.5911 12.734
57.6077 9.573
57.6242 6.751
57.6408 4.986
57.6573 4.099
57.6739 3.512
57.6904 2.679
57.7070 2.285
57.7235 2.471
57.7401 2.038
57.7566 1.704
57.7731 1.688
57.7897 1.732
57.8062 1.326
57.8228 1.595
57.8393 1.414
57.8559 1.047
57.8724 1.255
57.8890 1.310
57.9055 1.058
57.9221 1.047
57.9386 0.981
57.9551 1.030
57.9717 0.964
57.9882 0.942
58.0048 0.953
58.0213 0.959
58.0379 0.811
58.0544 0.959
58.0710 0.805
58.0875 0.877
58.1041 0.745
58.1206 1.030
58.1371 0.871
58.1537 0.696
58.1702 0.833
58.1868 0.816
58.2033 0.773
58.2199 0.668
58.2364 0.745
58.2530 0.679
58.2695 0.745
58.2861 0.625
58.3026 0.800
58.3191 0.685
58.3357 0.816
58.3522 0.822
58.3688 0.674
58.3853 0.647
58.4019 0.690
58.4184 0.778
58.4350 0.619
58.4515 0.712
58.4681 0.767
58.4846 0.685
58.5011 0.663
58.5177 0.685
58.5342 0.608
58.5508 0.663
58.5673 0.690
58.5839 0.679
58.6004 0.641
58.6170 0.729
58.6335 0.603
58.6501 0.636
58.6666 0.608
58.6831 0.652
58.6997 0.800
58.7162 0.641
58.7328 0.647
58.7493 0.696
58.7659 0.592
58.7824 0.696
58.7990 0.608
58.8155 0.652
58.8321 0.773
58.8486 0.586
58.8651 0.630
58.8817 0.597
58.8982 0.696
58.9148 0.597
58.9313 0.636
58.9479 0.668
58.9644 0.784
58.9810 0.652
58.9975 0.592
59.0141 0.608
59.0306 0.608
59.0471 0.679
59.0637 0.592
59.0802 0.521
59.0968 0.603
59.1133 0.586
59.1299 0.641
59.1464 0.608
59.1630 0.636
59.1795 0.668
59.1961 0.636
59.2126 0.652
59.2291 0.668
59.2457 0.658
59.2622 0.679
59.2788 0.729
59.2953 0.625
59.3119 0.668
59.3284 0.701
59.3450 0.636
59.3615 0.625
59.3781 0.718
59.3946 0.668
59.4111 0.718
59.4277 0.789
59.4442 0.773
59.4608 0.795
59.4773 0.778
59.4939 0.921
59.5104 1.074
59.5270 1.041
59.5435 1.211
59.5601 1.184
59.5766 1.408
59.5931 1.364
59.6097 1.529
59.6262 1.490
59.6428 1.732
59.6593 1.359
59.6759 1.145
59.6924 1.156
59.7090 1.189
59.7255 1.112
59.7421 1.068
59.7586 1.140
59.7751 0.981
59.7917 0.970
59.8082 1.118
59.8248 1.079
59.8413 0.805
59.8579 0.674
59.8744 0.756
59.8910 0.789
59.9075 0.614
59.9241 0.663
59.9406 0.586
59.9571 0.674
59.9737 0.619
59.9902 0.570
60.0068 0.553
60.0233 0.608
60.0399 0.636
60.0564 0.608
60.0730 0.553
60.0895 0.592
60.1060 0.466
60.1226 0.597
60.1391 0.564
60.1557 0.614
60.1722 0.564
60.1888 0.515
60.2053 0.718
60.2219 0.674
60.2384 0.608
60.2550 0.597
60.2715 0.548
60.2880 0.488
60.3046 0.581
60.3211 0.553
60.3377 0.647
60.3542 0.625
60.3708 0.570
60.3873 0.471
60.4039 0.553
60.4204 0.449
60.4370 0.723
60.4535 0.542
60.4700 0.652
60.4866 0.493
60.5031 0.652
60.5197 0.548
60.5362 0.586
60.5528 0.570
60.5693 0.592
60.5859 0.701
60.6024 0.614
60.6190 0.685
60.6355 0.597
60.6520 0.740
60.6686 0.679
60.6851 0.658
60.7017 0.816
60.7182 0.723
60.7348 0.756
60.7513 0.838
60.7679 0.855
60.7844 0.860
60.8010 0.942
60.8175 0.942
60.8340 0.904
60.8506 1.096
60.8671 1.118
60.8837 1.200
60.9002 1.332
60.9168 1.299
60.9333 1.441
60.9499 1.847
60.9664 1.890
60.9830 2.104
60.9995 2.488
61.0160 2.323
61.0326 2.296
61.0491 2.586
61.0657 2.526
61.0822 2.493
61.0988 2.899
61.1153 3.156
61.1319 3.370
61.1484 3.688
61.1650 4.082
61.1815 4.016
61.1980 3.770
61.2146 3.512
61.2311 2.910
61.2477 2.455
61.2642 2.082
61.2808 2.121
61.2973 1.896
61.3139 2.038
61.3304 2.121
61.3470 2.148
61.3635 1.885
61.3800 1.814
61.3966 1.671
61.4131 1.079
61.4297 0.981
61.4462 0.953
61.4628 0.833
61.4793 0.701
61.4959 0.658
61.5124 0.767
61.5290 0.647
61.5455 0.690
61.5620 0.608
61.5786 0.575
61.5951 0.542
61.6117 0.548
61.6282 0.658
61.6448 0.575
61.6613 0.586
61.6779 0.537
61.6944 0.603
61.7110 0.526
61.7275 0.564
61.7440 0.493
61.7606 0.504
61.7771 0.466
61.7937 0.597
61.8102 0.592
61.8268 0.477
61.8433 0.592
61.8599 0.559
61.8764 0.630
61.8930 0.521
61.9095 0.581
61.9260 0.526
61.9426 0.597
61.9591 0.553
61.9757 0.548
61.9922 0.449
62.0088 0.570
62.0253 0.614
62.0419 0.477
62.0584 0.581
62.0750 0.603
62.0915 0.493
62.1080 0.493
62.1246 0.510
62.1411 0.548
62.1577 0.532
62.1742 0.515
62.1908 0.647
62.2073 0.537
62.2239 0.515
62.2404 0.564
62.2570 0.411
62.2735 0.460
62.2900 0.466
62.3066 0.521
62.3231 0.422
62.3397 0.537
62.3562 0.537
62.3728 0.553
62.3893 0.515
62.4059 0.488
62.4224 0.559
62.4390 0.444
62.4555 0.499
62.4720 0.466
62.4886 0.433
62.5051 0.581
62.5217 0.422
62.5382 0.510
62.5548 0.592
62.5713 0.608
62.5879 0.537
62.6044 0.488
62.6210 0.499
62.6375 0.499
62.6540 0.521
62.6706 0.548
62.6871 0.433
62.7037 0.548
62.7202 0.564
62.7368 0.466
62.7533 0.400
62.7699 0.499
62.7864 0.542
62.8029 0.537
62.8195 0.411
62.8360 0.515
62.8526 0.510
62.8691 0.510
62.8857 0.532
62.9022 0.477
62.9188 0.362
62.9353 0.504
62.9519 0.444
62.9684 0.542
62.9849 0.466
63.0015 0.460
63.0180 0.553
63.0346 0.471
63.0511 0.510
63.0677 0.384
63.0842 0.570
63.1008 0.449
63.1173 0.422
63.1339 0.504
63.1504 0.510
63.1669 0.433
63.1835 0.564
63.2000 0.455
63.2166 0.477
63.2331 0.488
63.2497 0.395
63.2662 0.422
63.2828 0.570
63.2993 0.438
63.3159 0.532
63.3324 0.477
63.3489 0.482
63.3655 0.532
63.3820 0.515
63.3986 0.411
63.4151 0.471
63.4317 0.444
63.4482 0.340
63.4648 0.625
63.4813 0.438
63.4979 0.493
63.5144 0.444
63.5309 0.455
63.5475 0.449
63.5640 0.416
63.5806 0.367
63.5971 0.499
63.6137 0.510
63.6302 0.422
63.6468 0.482
63.6633 0.378
63.6799 0.532
63.6964 0.570
63.7129 0.614
63.7295 0.581
63.7460 0.471
63.7626 0.510
63.7791 0.542
63.7957 0.378
63.8122 0.373
63.8288 0.685
63.8453 0.521
63.8619 0.471
63.8784 0.521
63.8949 0.570
63.9115 0.619
63.9280 0.553
63.9446 0.444
63.9611 0.548
63.9777 0.488
63.9942 0.542
64.0108 0.493
64.0273 0.581
64.0439 0.548
64.0604 0.515
64.0769 0.526
64.0935 0.570
64.1100 0.592
64.1266 0.581
64.1431 0.499
64.1597 0.532
64.1762 0.553
64.1928 0.542
64.2093 0.597
64.2259 0.532
64.2424 0.553
64.2589 0.521
64.2755 0.526
64.2920 0.405
64.3086 0.581
64.3251 0.471
64.3417 0.614
64.3582 0.575
64.3748 0.510
64.3913 0.504
64.4079 0.433
64.4244 0.603
64.4409 0.504
64.4575 0.466
64.4740 0.411
64.4906 0.548
64.5071 0.477
64.5237 0.641
64.5402 0.482
64.5568 0.521
64.5733 0.488
64.5899 0.581
64.6064 0.515
64.6229 0.433
64.6395 0.526
64.6560 0.488
64.6726 0.564
64.6891 0.504
64.7057 0.504
64.7222 0.521
64.7388 0.510
64.7553 0.548
64.7719 0.515
64.7884 0.564
64.8049 0.619
64.8215 0.581
64.8380 0.510
64.8546 0.499
64.8711 0.477
64.8877 0.488
64.9042 0.504
64.9208 0.493
64.9373 0.510
64.9539 0.493
64.9704 0.575
64.9869 0.493
65.0035 0.542
65.0200 0.504
65.0366 0.477
65.0531 0.532
65.0697 0.515
65.0862 0.488
65.1028 0.488
65.1193 0.521
65.1359 0.526
65.1524 0.515
65.1689 0.405
65.1855 0.652
65.2020 0.537
65.2186 0.493
65.2351 0.575
65.2517 0.564
65.2682 0.504
65.2848 0.553
65.3013 0.581
65.3179 0.581
65.3344 0.564
65.3509 0.433
65.3675 0.521
65.3840 0.608
65.4006 0.526
65.4171 0.603
65.4337 0.548
65.4502 0.537
65.4668 0.641
65.4833 0.690
65.4999 0.647
65.5164 0.570
65.5329 0.608
65.5495 0.625
65.5660 0.542
65.5826 0.652
65.5991 0.745
65.6157 0.696
65.6322 0.685
65.6488 0.674
65.6653 0.652
65.6818 0.756
65.6984 0.696
65.7149 0.855
65.7315 0.647
65.7480 0.701
65.7646 0.778
65.7811 0.663
65.7977 0.614
65.8142 0.805
65.8308 0.811
65.8473 0.860
65.8638 0.800
65.8804 0.740
65.8969 0.827
65.9135 0.970
65.9300 1.068
65.9466 1.118
65.9631 1.014
65.9797 1.129
65.9962 1.118
66.0128 1.364
66.0293 1.523
66.0458 1.332
66.0624 1.403
66.0789 1.622
66.0955 1.781
66.1120 1.912
66.1286 2.071
66.1451 2.433
66.1617 2.181
66.1782 2.827
66.1948 3.008
66.2113 3.512
66.2278 4.236
66.2444 4.285
66.2609 5.074
66.2775 6.553
66.2940 6.992
66.3106 8.592
66.3271 9.622
66.3437 11.151
66.3602 12.860
66.3768 13.573
66.3933 13.425
66.4098 12.877
66.4264 11.973
66.4429 9.748
66.4595 8.005
66.4760 6.778
66.4926 6.395
66.5091 6.641
66.5257 6.866
66.5422 7.671
66.5588 7.184
66.5753 7.255
66.5918 7.052
66.6084 6.038
66.6249 4.910
66.6415 3.732
66.6580 2.751
66.6746 2.734
66.6911 1.863
66.7077 1.682
66.7242 1.359
66.7408 1.359
66.7573 1.195
66.7738 1.129
66.7904 1.178
66.8069 0.959
66.8235 0.910
66.8400 1.030
66.8566 0.948
66.8731 0.811
66.8897 0.975
66.9062 0.871
66.9228 0.816
66.9393 0.778
66.9558 0.822
66.9724 0.762
66.9889 0.701
67.0055 0.723
67.0220 0.816
67.0386 0.729
67.0551 0.910
67.0717 0.773
67.0882 0.762
67.1048 0.756
67.1213 0.773
67.1378 0.712
67.1544 0.729
67.1709 0.647
67.1875 0.762
67.2040 0.729
67.2206 0.778
67.2371 0.663
67.2537 0.844
67.2702 0.712
67.2868 0.800
67.3033 0.767
67.3198 0.663
67.3364 0.816
67.3529 0.778
67.3695 0.805
67.3860 0.751
67.4026 0.767
67.4191 0.767
67.4357 0.822
67.4522 0.964
67.4688 0.805
67.4853 0.849
67.5018 0.970
67.5184 0.888
67.5349 1.014
67.5515 0.816
67.5680 0.986
67.5846 1.025
67.6011 0.997
67.6177 1.200
67.6342 1.238
67.6508 1.167
67.6673 1.348
67.6838 1.490
67.7004 1.605
67.7169 1.644
67.7335 1.874
67.7500 1.912
67.7666 2.137
67.7831 2.553
67.7997 2.427
67.8162 2.800
67.8328 3.288
67.8493 3.337
67.8658 3.890
67.8824 4.307
67.8989 5.249
67.9155 5.945
67.9320 6.953
67.9486 7.896
67.9651 9.134
67.9817 10.537
67.9982 12.126
68.0148 14.405
68.0313 16.290
68.0478 18.762
68.0644 20.438
68.0809 20.279
68.0975 19.134
68.1140 17.184
68.1306 13.622
68.1471 11.562
68.1637 9.699
68.1802 9.227
68.1968 9.118
68.2133 8.997
68.2298 9.967
68.2464 10.340
68.2629 10.575
68.2795 10.367
68.2960 9.562
68.3126 7.868
68.3291 6.022
68.3457 4.553
68.3622 3.271
68.3787 2.548
68.3953 2.493
68.4118 2.049
68.4284 1.501
68.4449 1.567
68.4615 1.326
68.4780 1.222
68.4946 1.244
68.5111 1.025
68.5277 1.041
68.5442 0.871
68.5607 0.904
68.5773 0.844
68.5938 0.866
68.6104 1.052
68.6269 0.932
68.6435 0.860
68.6600 0.679
68.6766 0.795
68.6931 0.784
68.7097 0.838
68.7262 0.718
68.7427 0.685
68.7593 0.778
68.7758 0.696
68.7924 0.658
68.8089 0.679
68.8255 0.641
68.8420 0.592
68.8586 0.521
68.8751 0.559
68.8917 0.652
68.9082 0.542
68.9247 0.636
68.9413 0.575
68.9578 0.608
68.9744 0.526
68.9909 0.564
69.0075 0.575
69.0240 0.575
69.0406 0.559
69.0571 0.548
69.0737 0.575
69.0902 0.575
69.1067 0.466
69.1233 0.586
69.1398 0.526
69.1564 0.586
69.1729 0.548
69.1895 0.515
69.2060 0.608
69.2226 0.521
69.2391 0.493
69.2557 0.564
69.2722 0.466
69.2887 0.542
69.3053 0.553
69.3218 0.422
69.3384 0.537
69.3549 0.389
69.3715 0.493
69.3880 0.493
69.4046 0.542
69.4211 0.499
69.4377 0.488
69.4542 0.548
69.4707 0.493
69.4873 0.542
69.5038 0.521
69.5204 0.477
69.5369 0.515
69.5535 0.553
69.5700 0.564
69.5866 0.499
69.6031 0.499
69.6197 0.548
69.6362 0.460
69.6527 0.411
69.6693 0.515
69.6858 0.548
69.7024 0.466
69.7189 0.542
69.7355 0.532
69.7520 0.493
69.7686 0.482
69.7851 0.488
69.8017 0.608
69.8182 0.537
69.8347 0.466
69.8513 0.460
69.8678 0.482
69.8844 0.460
69.9009 0.455
69.9175 0.521
69.9340 0.521
69.9506 0.559
69.9671 0.482
69.9837 0.548
70.0002 0.542
