'Id: "" Comment: "" Operator: "Administrator" Anode: "Cu" Scantype: "Locked Coupled" TimePerStep: "182.5" X: "0" Y: "0" Z: "0" 
20.0000 2.597
20.0165 2.521
20.0331 2.471
20.0496 2.575
20.0662 2.581
20.0827 2.493
20.0993 2.471
20.1158 2.597
20.1324 2.597
20.1489 2.356
20.1655 2.663
20.1820 2.488
20.1985 2.630
20.2151 2.493
20.2316 2.526
20.2482 2.422
20.2647 2.427
20.2813 2.762
20.2978 2.279
20.3144 2.389
20.3309 2.499
20.3475 2.389
20.3640 2.405
20.3805 2.460
20.3971 2.493
20.4136 2.405
20.4302 2.679
20.4467 2.400
20.4633 2.318
20.4798 2.400
20.4964 2.488
20.5129 2.488
20.5295 2.416
20.5460 2.581
20.5625 2.175
20.5791 2.482
20.5956 2.373
20.6122 2.444
20.6287 2.466
20.6453 2.438
20.6618 2.197
20.6784 2.542
20.6949 2.416
20.7115 2.285
20.7280 2.548
20.7445 2.345
20.7611 2.482
20.7776 2.455
20.7942 2.526
20.8107 2.411
20.8273 2.241
20.8438 2.230
20.8604 2.526
20.8769 2.438
20.8935 2.575
20.9100 2.318
20.9265 2.378
20.9431 2.575
20.9596 2.471
20.9762 2.592
20.9927 2.488
21.0093 2.290
21.0258 2.488
21.0424 2.471
21.0589 2.296
21.0755 2.405
21.0920 2.400
21.1085 2.323
21.1251 2.510
21.1416 2.208
21.1582 2.416
21.1747 2.411
21.1913 2.285
21.2078 2.466
21.2244 2.477
21.2409 2.236
21.2575 2.416
21.2740 2.504
21.2905 2.504
21.3071 2.170
21.3236 2.482
21.3402 2.510
21.3567 2.712
21.3733 2.225
21.3898 2.405
21.4064 2.378
21.4229 2.460
21.4394 2.493
21.4560 2.395
21.4725 2.384
21.4891 2.444
21.5056 2.362
21.5222 2.225
21.5387 2.312
21.5553 2.592
21.5718 2.274
21.5884 2.400
21.6049 2.197
21.6214 2.329
21.6380 2.405
21.6545 2.356
21.6711 2.247
21.6876 2.373
21.7042 2.499
21.7207 2.247
21.7373 2.307
21.7538 2.564
21.7704 2.121
21.7869 2.274
21.8034 2.236
21.8200 2.334
21.8365 2.455
21.8531 2.170
21.8696 2.455
21.8862 2.203
21.9027 2.126
21.9193 2.471
21.9358 2.225
21.9524 2.307
21.9689 2.093
21.9854 2.071
22.0020 2.422
22.0185 2.318
22.0351 2.329
22.0516 2.389
22.0682 2.164
22.0847 2.000
22.1013 2.400
22.1178 2.373
22.1344 2.537
22.1509 2.268
22.1674 2.197
22.1840 2.225
22.2005 2.181
22.2171 2.345
22.2336 2.170
22.2502 2.444
22.2667 2.340
22.2833 2.115
22.2998 2.225
22.3164 2.115
22.3329 2.159
22.3494 2.121
22.3660 2.214
22.3825 2.148
22.3991 2.285
22.4156 2.066
22.4322 1.912
22.4487 2.312
22.4653 1.989
22.4818 2.033
22.4984 2.060
22.5149 1.978
22.5314 2.164
22.5480 2.214
22.5645 2.285
22.5811 2.219
22.5976 2.230
22.6142 2.055
22.6307 2.066
22.6473 1.890
22.6638 2.082
22.6804 2.022
22.6969 2.153
22.7134 1.989
22.7300 2.164
22.7465 2.137
22.7631 2.334
22.7796 2.164
22.7962 2.219
22.8127 2.148
22.8293 2.197
22.8458 1.973
22.8624 2.236
22.8789 2.126
22.8954 2.115
22.9120 2.126
22.9285 2.060
22.9451 2.142
22.9616 2.099
22.9782 2.077
22.9947 2.164
23.0113 2.258
23.0278 2.022
23.0444 2.197
23.0609 2.027
23.0774 2.219
23.0940 2.022
23.1105 2.132
23.1271 2.033
23.1436 2.296
23.1602 2.159
23.1767 1.978
23.1933 1.995
23.2098 2.132
23.2264 2.170
23.2429 2.082
23.2594 2.049
23.2760 2.088
23.2925 2.060
23.3091 1.951
23.3256 2.142
23.3422 1.967
23.3587 2.044
23.3753 2.071
23.3918 2.132
23.4084 2.186
23.4249 2.066
23.4414 2.203
23.4580 2.192
23.4745 2.115
23.4911 2.005
23.5076 1.868
23.5242 2.055
23.5407 2.088
23.5573 1.901
23.5738 2.077
23.5904 1.962
23.6069 2.115
23.6234 2.044
23.6400 2.049
23.6565 2.121
23.6731 2.148
23.6896 1.907
23.7062 1.962
23.7227 1.879
23.7393 2.000
23.7558 1.984
23.7724 2.181
23.7889 2.252
23.8054 2.132
23.8220 2.340
23.8385 2.016
23.8551 2.011
23.8716 2.033
23.8882 2.148
23.9047 2.307
23.9213 2.351
23.9378 2.181
23.9544 2.066
23.9709 2.071
23.9874 2.477
24.0040 2.241
24.0205 2.164
24.0371 2.186
24.0536 2.471
24.0702 2.301
24.0867 2.121
24.1033 2.427
24.1198 2.553
24.1364 2.296
24.1529 2.395
24.1694 2.416
24.1860 2.542
24.2025 2.460
24.2191 2.438
24.2356 2.586
24.2522 2.340
24.2687 2.668
24.2853 2.581
24.3018 2.405
24.3183 2.614
24.3349 2.553
24.3514 2.685
24.3680 2.433
24.3845 2.608
24.4011 2.762
24.4176 2.444
24.4342 2.564
24.4507 2.597
24.4673 2.663
24.4838 2.575
24.5003 2.542
24.5169 2.652
24.5334 2.800
24.5500 2.460
24.5665 2.400
24.5831 2.581
24.5996 2.740
24.6162 2.827
24.6327 2.603
24.6493 2.816
24.6658 2.723
24.6823 2.625
24.6989 2.674
24.7154 2.679
24.7320 2.729
24.7485 2.784
24.7651 2.712
24.7816 2.981
24.7982 2.723
24.8147 2.789
24.8313 2.701
24.8478 2.762
24.8643 2.526
24.8809 2.701
24.8974 2.893
24.9140 2.718
24.9305 2.701
24.9471 2.553
24.9636 2.904
24.9802 2.827
24.9967 3.112
25.0133 2.838
25.0298 2.795
25.0463 2.838
25.0629 2.729
25.0794 2.756
25.0960 3.030
25.1125 3.107
25.1291 2.964
25.1456 2.778
25.1622 2.910
25.1787 3.008
25.1953 3.342
25.2118 3.304
25.2283 3.304
25.2449 3.732
25.2614 3.879
25.2780 4.148
25.2945 4.400
25.3111 4.663
25.3276 5.304
25.3442 6.005
25.3607 6.071
25.3773 7.786
25.3938 8.444
25.4103 9.858
25.4269 12.625
25.4434 15.732
25.4600 19.638
25.4765 24.274
25.4931 30.005
25.5096 35.167
25.5262 36.668
25.5427 36.055
25.5593 32.690
25.5758 28.718
25.5923 24.636
25.6089 20.022
25.6254 15.227
25.6420 11.666
25.6585 8.800
25.6751 7.090
25.6916 5.244
25.7082 4.712
25.7247 4.225
25.7413 3.655
25.7578 3.551
25.7743 3.359
25.7909 3.266
25.8074 2.986
25.8240 3.019
25.8405 2.751
25.8571 2.800
25.8736 3.068
25.8902 2.729
25.9067 2.756
25.9233 2.510
25.9398 2.362
25.9563 2.690
25.9729 2.515
25.9894 2.460
26.0060 2.471
26.0225 2.318
26.0391 2.586
26.0556 2.537
26.0722 2.334
26.0887 2.142
26.1053 2.378
26.1218 2.373
26.1383 2.564
26.1549 2.340
26.1714 2.126
26.1880 2.290
26.2045 2.055
26.2211 2.312
26.2376 2.236
26.2542 2.099
26.2707 2.164
26.2873 2.422
26.3038 2.132
26.3203 2.126
26.3369 1.967
26.3534 2.164
26.3700 2.334
26.3865 2.038
26.4031 2.044
26.4196 2.126
26.4362 2.170
26.4527 2.312
26.4693 2.170
26.4858 2.121
26.5023 2.252
26.5189 2.044
26.5354 2.214
26.5520 2.268
26.5685 2.307
26.5851 2.192
26.6016 2.104
26.6182 2.312
26.6347 1.858
26.6513 2.055
26.6678 2.186
26.6843 2.082
26.7009 2.066
26.7174 2.071
26.7340 2.110
26.7505 2.126
26.7671 2.142
26.7836 2.093
26.8002 2.186
26.8167 1.912
26.8333 2.093
26.8498 1.995
26.8663 2.033
26.8829 2.104
26.8994 2.175
26.9160 2.252
26.9325 1.934
26.9491 2.214
26.9656 2.137
26.9822 1.879
26.9987 2.066
27.0152 2.181
27.0318 1.847
27.0483 1.874
27.0649 2.121
27.0814 1.934
27.0980 2.093
27.1145 2.126
27.1311 1.847
27.1476 2.049
27.1642 1.995
27.1807 2.115
27.1972 1.819
27.2138 1.759
27.2303 2.153
27.2469 1.841
27.2634 1.934
27.2800 1.808
27.2965 2.066
27.3131 2.082
27.3296 1.874
27.3462 2.005
27.3627 1.956
27.3792 2.203
27.3958 1.973
27.4123 1.945
27.4289 1.819
27.4454 1.792
27.4620 1.781
27.4785 1.852
27.4951 2.055
27.5116 1.868
27.5282 1.967
27.5447 1.973
27.5612 1.737
27.5778 2.082
27.5943 1.934
27.6109 1.786
27.6274 1.677
27.6440 2.044
27.6605 2.066
27.6771 1.836
27.6936 1.940
27.7102 1.797
27.7267 1.841
27.7432 1.923
27.7598 1.633
27.7763 1.923
27.7929 1.912
27.8094 2.022
27.8260 1.896
27.8425 1.792
27.8591 1.863
27.8756 1.951
27.8922 1.721
27.9087 1.627
27.9252 1.682
27.9418 1.786
27.9583 1.874
27.9749 1.666
27.9914 1.704
28.0080 1.584
28.0245 1.748
28.0411 1.863
28.0576 1.896
28.0742 1.792
28.0907 1.934
28.1072 1.945
28.1238 1.759
28.1403 1.863
28.1569 1.693
28.1734 1.556
28.1900 1.556
28.2065 1.655
28.2231 1.627
28.2396 1.408
28.2562 1.584
28.2727 1.649
28.2892 1.896
28.3058 1.671
28.3223 1.660
28.3389 1.600
28.3554 1.600
28.3720 1.644
28.3885 1.447
28.4051 1.797
28.4216 1.660
28.4382 1.699
28.4547 1.605
28.4712 1.633
28.4878 1.600
28.5043 1.556
28.5209 1.622
28.5374 1.529
28.5540 1.715
28.5705 1.671
28.5871 1.677
28.6036 1.529
28.6202 1.479
28.6367 1.737
28.6532 1.638
28.6698 1.677
28.6863 1.523
28.7029 1.523
28.7194 1.490
28.7360 1.485
28.7525 1.584
28.7691 1.611
28.7856 1.518
28.8022 1.633
28.8187 1.688
28.8352 1.666
28.8518 1.721
28.8683 1.573
28.8849 1.551
28.9014 1.545
28.9180 1.611
28.9345 1.556
28.9511 1.534
28.9676 1.649
28.9842 1.540
29.0007 1.551
29.0172 1.452
29.0338 1.397
29.0503 1.556
29.0669 1.518
29.0834 1.545
29.1000 1.419
29.1165 1.589
29.1331 1.496
29.1496 1.490
29.1662 1.304
29.1827 1.353
29.1992 1.381
29.2158 1.485
29.2323 1.611
29.2489 1.425
29.2654 1.523
29.2820 1.578
29.2985 1.479
29.3151 1.293
29.3316 1.463
29.3482 1.321
29.3647 1.458
29.3812 1.507
29.3978 1.370
29.4143 1.523
29.4309 1.430
29.4474 1.485
29.4640 1.419
29.4805 1.501
29.4971 1.545
29.5136 1.447
29.5302 1.540
29.5467 1.370
29.5632 1.507
29.5798 1.414
29.5963 1.496
29.6129 1.392
29.6294 1.496
29.6460 1.633
29.6625 1.474
29.6791 1.436
29.6956 1.425
29.7121 1.414
29.7287 1.540
29.7452 1.386
29.7618 1.425
29.7783 1.501
29.7949 1.304
29.8114 1.403
29.8280 1.216
29.8445 1.403
29.8611 1.293
29.8776 1.299
29.8941 1.507
29.9107 1.342
29.9272 1.266
29.9438 1.408
29.9603 1.452
29.9769 1.375
29.9934 1.403
30.0100 1.463
30.0265 1.277
30.0431 1.348
30.0596 1.381
30.0761 1.249
30.0927 1.337
30.1092 1.195
30.1258 1.288
30.1423 1.364
30.1589 1.348
30.1754 1.342
30.1920 1.447
30.2085 1.375
30.2251 1.381
30.2416 1.195
30.2581 1.151
30.2747 1.249
30.2912 1.348
30.3078 1.342
30.3243 1.332
30.3409 1.205
30.3574 1.244
30.3740 1.189
30.3905 1.512
30.4071 1.304
30.4236 1.408
30.4401 1.227
30.4567 1.107
30.4732 1.425
30.4898 1.244
30.5063 1.419
30.5229 1.282
30.5394 1.195
30.5560 1.244
30.5725 1.260
30.5891 1.348
30.6056 1.211
30.6221 1.260
30.6387 1.145
30.6552 1.425
30.6718 1.238
30.6883 1.233
30.7049 1.277
30.7214 1.277
30.7380 1.156
30.7545 1.299
30.7711 1.195
30.7876 1.381
30.8041 1.332
30.8207 1.249
30.8372 1.107
30.8538 1.112
30.8703 1.348
30.8869 1.299
30.9034 1.271
30.9200 1.140
30.9365 1.249
30.9531 1.288
30.9696 1.184
30.9861 1.227
31.0027 1.205
31.0192 1.381
31.0358 1.326
31.0523 1.178
31.0689 1.282
31.0854 1.129
31.1020 1.151
31.1185 1.359
31.1351 1.299
31.1516 1.233
31.1681 1.205
31.1847 1.123
31.2012 1.233
31.2178 1.216
31.2343 1.184
31.2509 1.195
31.2674 1.227
31.2840 1.249
31.3005 1.205
31.3171 1.216
31.3336 1.184
31.3501 1.178
31.3667 1.189
31.3832 1.145
31.3998 1.162
31.4163 1.195
31.4329 1.205
31.4494 1.304
31.4660 1.211
31.4825 1.167
31.4991 1.255
31.5156 1.189
31.5321 1.178
31.5487 1.195
31.5652 1.205
31.5818 1.134
31.5983 1.288
31.6149 1.408
31.6314 1.370
31.6480 1.167
31.6645 1.238
31.6811 1.304
31.6976 1.227
31.7141 1.178
31.7307 1.266
31.7472 1.085
31.7638 1.255
31.7803 1.156
31.7969 1.195
31.8134 1.189
31.8300 1.271
31.8465 1.271
31.8631 1.063
31.8796 1.244
31.8961 1.123
31.9127 1.145
31.9292 1.052
31.9458 1.173
31.9623 1.079
31.9789 1.123
31.9954 1.156
32.0120 1.200
32.0285 1.118
32.0451 1.167
32.0616 1.222
32.0781 1.145
32.0947 1.068
32.1112 1.085
32.1278 1.233
32.1443 1.008
32.1609 1.101
32.1774 1.052
32.1940 1.184
32.2105 1.118
32.2271 1.227
32.2436 1.184
32.2601 1.151
32.2767 1.321
32.2932 1.085
32.3098 1.184
32.3263 1.167
32.3429 0.986
32.3594 0.975
32.3760 1.112
32.3925 1.167
32.4091 1.003
32.4256 1.222
32.4421 0.992
32.4587 1.140
32.4752 1.074
32.4918 1.129
32.5083 1.052
32.5249 1.167
32.5414 1.019
32.5580 1.107
32.5745 1.014
32.5910 1.085
32.6076 0.997
32.6241 1.118
32.6407 1.019
32.6572 1.085
32.6738 1.167
32.6903 1.151
32.7069 1.244
32.7234 0.986
32.7400 1.107
32.7565 1.178
32.7730 1.205
32.7896 1.195
32.8061 0.981
32.8227 1.167
32.8392 1.030
32.8558 0.986
32.8723 1.321
32.8889 1.090
32.9054 1.156
32.9220 0.997
32.9385 0.959
32.9550 0.997
32.9716 1.090
32.9881 0.959
33.0047 0.970
33.0212 1.074
33.0378 0.992
33.0543 1.058
33.0709 1.195
33.0874 1.063
33.1040 1.195
33.1205 1.074
33.1370 1.025
33.1536 0.904
33.1701 0.992
33.1867 1.085
33.2032 1.014
33.2198 1.118
33.2363 1.008
33.2529 1.178
33.2694 1.112
33.2860 1.036
33.3025 1.008
33.3190 1.112
33.3356 1.195
33.3521 1.030
33.3687 1.151
33.3852 1.112
33.4018 0.997
33.4183 1.008
33.4349 1.047
33.4514 1.025
33.4680 1.074
33.4845 1.151
33.5010 1.063
33.5176 0.992
33.5341 1.090
33.5507 0.959
33.5672 0.992
33.5838 1.058
33.6003 1.134
33.6169 1.205
33.6334 1.008
33.6500 1.118
33.6665 1.118
33.6830 1.162
33.6996 1.167
33.7161 1.249
33.7327 1.134
33.7492 1.112
33.7658 1.096
33.7823 1.129
33.7989 1.200
33.8154 1.112
33.8320 1.211
33.8485 1.244
33.8650 1.178
33.8816 1.249
33.8981 1.271
33.9147 1.184
33.9312 1.178
33.9478 1.255
33.9643 1.337
33.9809 1.386
33.9974 1.167
34.0140 1.244
34.0305 1.222
34.0470 1.326
34.0636 1.282
34.0801 1.162
34.0967 1.249
34.1132 1.134
34.1298 1.474
34.1463 1.353
34.1629 1.277
34.1794 1.370
34.1960 1.326
34.2125 1.447
34.2290 1.310
34.2456 1.332
34.2621 1.321
34.2787 1.321
34.2952 1.282
34.3118 1.244
34.3283 1.315
34.3449 1.419
34.3614 1.260
34.3780 1.452
34.3945 1.512
34.4110 1.370
34.4276 1.447
34.4441 1.178
34.4607 1.233
34.4772 1.342
34.4938 1.364
34.5103 1.403
34.5269 1.458
34.5434 1.474
34.5600 1.441
34.5765 1.589
34.5930 1.578
34.6096 1.732
34.6261 1.808
34.6427 1.962
34.6592 1.836
34.6758 1.885
34.6923 1.945
34.7089 2.323
34.7254 2.318
34.7420 2.762
34.7585 2.970
34.7750 3.041
34.7916 3.178
34.8081 3.693
34.8247 4.121
34.8412 4.751
34.8578 5.688
34.8743 5.847
34.8909 6.975
34.9074 8.488
34.9240 10.082
34.9405 11.145
34.9570 13.638
34.9736 17.003
34.9901 20.312
35.0067 26.247
35.0232 32.488
35.0398 39.803
35.0563 45.030
35.0729 49.770
35.0894 48.427
35.1060 43.759
35.1225 38.795
35.1390 33.468
35.1556 30.203
35.1721 26.915
35.1887 22.860
35.2052 17.162
35.2218 12.241
35.2383 9.019
35.2549 6.597
35.2714 5.304
35.2879 4.104
35.3045 3.386
35.3210 3.200
35.3376 2.795
35.3541 2.384
35.3707 2.356
35.3872 2.241
35.4038 1.984
35.4203 1.879
35.4369 1.770
35.4534 1.781
35.4699 1.573
35.4865 1.584
35.5030 1.677
35.5196 1.573
35.5361 1.556
35.5527 1.507
35.5692 1.419
35.5858 1.392
35.6023 1.600
35.6189 1.447
35.6354 1.381
35.6519 1.310
35.6685 1.370
35.6850 1.507
35.7016 1.342
35.7181 1.315
35.7347 1.436
35.7512 1.266
35.7678 1.359
35.7843 1.189
35.8009 1.162
35.8174 1.266
35.8339 1.173
35.8505 1.277
35.8670 1.167
35.8836 1.359
35.9001 1.134
35.9167 1.090
35.9332 1.096
35.9498 1.216
35.9663 1.156
35.9829 1.189
35.9994 1.184
36.0159 1.008
36.0325 0.948
36.0490 1.058
36.0656 1.173
36.0821 1.145
36.0987 1.101
36.1152 1.156
36.1318 1.085
36.1483 1.019
36.1649 1.260
36.1814 1.195
36.1979 1.003
36.2145 1.090
36.2310 1.112
36.2476 1.052
36.2641 1.162
36.2807 1.140
36.2972 0.997
36.3138 1.140
36.3303 1.129
36.3469 1.173
36.3634 1.101
36.3799 1.096
36.3965 1.167
36.4130 1.260
36.4296 1.178
36.4461 1.025
36.4627 1.118
36.4792 1.058
36.4958 0.953
36.5123 1.047
36.5289 1.085
36.5454 1.151
36.5619 1.189
36.5785 1.184
36.5950 1.205
36.6116 1.129
36.6281 1.162
36.6447 1.085
36.6612 1.140
36.6778 1.063
36.6943 1.189
36.7109 1.118
36.7274 1.167
36.7439 1.205
36.7605 1.134
36.7770 1.162
36.7936 1.151
36.8101 1.156
36.8267 1.063
36.8432 1.058
36.8598 1.036
36.8763 1.058
36.8929 1.222
36.9094 1.200
36.9259 1.014
36.9425 1.200
36.9590 1.052
36.9756 1.184
36.9921 1.118
37.0087 1.107
37.0252 1.173
37.0418 1.277
37.0583 1.184
37.0749 1.244
37.0914 1.145
37.1079 1.370
37.1245 1.205
37.1410 1.151
37.1576 1.266
37.1741 1.184
37.1907 1.216
37.2072 1.216
37.2238 1.227
37.2403 1.195
37.2569 1.375
37.2734 1.397
37.2899 1.490
37.3065 1.359
37.3230 1.688
37.3396 1.726
37.3561 1.458
37.3727 1.633
37.3892 1.830
37.4058 2.077
37.4223 1.792
37.4389 2.132
37.4554 2.438
37.4719 2.696
37.4885 2.921
37.5050 3.260
37.5216 3.721
37.5381 4.164
37.5547 4.449
37.5712 5.721
37.5878 6.904
37.6043 8.038
37.6209 9.770
37.6374 11.841
37.6539 13.962
37.6705 16.893
37.6870 19.233
37.7036 20.175
37.7201 18.964
37.7367 16.515
37.7532 14.241
37.7698 12.488
37.7863 11.830
37.8029 11.233
37.8194 9.030
37.8359 7.655
37.8525 5.649
37.8690 4.121
37.8856 3.447
37.9021 2.559
37.9187 2.181
37.9352 1.929
37.9518 2.000
37.9683 1.726
37.9848 1.474
38.0014 1.304
38.0179 1.386
38.0345 1.452
38.0510 1.195
38.0676 1.134
38.0841 1.282
38.1007 1.074
38.1172 1.288
38.1338 1.019
38.1503 1.205
38.1668 1.085
38.1834 1.096
38.1999 1.063
38.2165 1.090
38.2330 1.211
38.2496 0.986
38.2661 1.205
38.2827 0.964
38.2992 1.008
38.3158 1.123
38.3323 1.058
38.3488 1.090
38.3654 1.162
38.3819 0.953
38.3985 0.959
38.4150 1.096
38.4316 1.052
38.4481 1.036
38.4647 0.833
38.4812 1.074
38.4978 1.058
38.5143 0.975
38.5308 0.904
38.5474 0.921
38.5639 1.129
38.5805 0.893
38.5970 1.030
38.6136 0.921
38.6301 0.932
38.6467 0.882
38.6632 0.953
38.6798 0.899
38.6963 1.074
38.7128 0.844
38.7294 0.866
38.7459 0.877
38.7625 0.959
38.7790 0.997
38.7956 0.926
38.8121 0.970
38.8287 1.008
38.8452 1.014
38.8618 1.162
38.8783 0.986
38.8948 1.036
38.9114 0.992
38.9279 1.014
38.9445 1.052
38.9610 0.877
38.9776 0.915
38.9941 1.041
39.0107 0.932
39.0272 1.052
39.0438 0.970
39.0603 0.882
39.0768 0.932
39.0934 0.866
39.1099 0.866
39.1265 0.942
39.1430 0.849
39.1596 0.877
39.1761 0.921
39.1927 0.921
39.2092 0.932
39.2258 0.959
39.2423 0.942
39.2588 0.855
39.2754 0.816
39.2919 0.855
39.3085 0.937
39.3250 0.855
39.3416 0.942
39.3581 0.778
39.3747 0.789
39.3912 0.811
39.4078 0.921
39.4243 0.932
39.4408 0.893
39.4574 0.871
39.4739 0.773
39.4905 0.860
39.5070 0.860
39.5236 1.058
39.5401 0.789
39.5567 0.959
39.5732 0.789
39.5898 0.866
39.6063 0.827
39.6228 0.866
39.6394 0.899
39.6559 0.893
39.6725 0.860
39.6890 0.932
39.7056 0.910
39.7221 0.937
39.7387 0.997
39.7552 0.915
39.7718 0.838
39.7883 0.866
39.8048 0.849
39.8214 0.975
39.8379 0.849
39.8545 0.795
39.8710 0.877
39.8876 0.833
39.9041 0.942
39.9207 0.855
39.9372 0.844
39.9538 0.805
39.9703 0.827
39.9868 0.800
40.0034 0.838
40.0199 0.767
40.0365 0.838
40.0530 0.827
40.0696 0.888
40.0861 0.838
40.1027 0.953
40.1192 0.871
40.1358 0.767
40.1523 0.959
40.1688 0.723
40.1854 0.888
40.2019 0.685
40.2185 0.729
40.2350 0.773
40.2516 0.981
40.2681 0.800
40.2847 0.849
40.3012 0.915
40.3178 0.838
40.3343 0.882
40.3508 0.932
40.3674 0.795
40.3839 0.833
40.4005 0.915
40.4170 0.723
40.4336 0.805
40.4501 0.740
40.4667 0.910
40.4832 0.964
40.4998 0.822
40.5163 0.789
40.5328 0.992
40.5494 0.844
40.5659 0.888
40.5825 0.855
40.5990 0.953
40.6156 0.734
40.6321 0.745
40.6487 0.833
40.6652 0.712
40.6818 0.827
40.6983 0.948
40.7148 0.762
40.7314 0.762
40.7479 0.805
40.7645 0.937
40.7810 0.937
40.7976 0.784
40.8141 0.773
40.8307 0.849
40.8472 0.910
40.8637 0.838
40.8803 0.827
40.8968 0.729
40.9134 0.800
40.9299 0.668
40.9465 0.849
40.9630 0.910
40.9796 0.652
40.9961 0.888
41.0127 0.833
41.0292 0.712
41.0457 0.805
41.0623 0.899
41.0788 0.888
41.0954 0.745
41.1119 0.729
41.1285 0.789
41.1450 0.932
41.1616 0.899
41.1781 0.833
41.1947 0.937
41.2112 0.877
41.2277 0.860
41.2443 0.882
41.2608 0.805
41.2774 0.921
41.2939 0.871
41.3105 0.827
41.3270 0.773
41.3436 0.805
41.3601 0.838
41.3767 0.964
41.3932 0.932
41.4097 0.833
41.4263 0.877
41.4428 0.893
41.4594 0.816
41.4759 1.030
41.4925 0.981
41.5090 1.058
41.5256 1.129
41.5421 1.184
41.5587 1.337
41.5752 1.332
41.5917 1.282
41.6083 1.353
41.6248 1.184
41.6414 0.975
41.6579 1.145
41.6745 1.129
41.6910 1.014
41.7076 0.992
41.7241 1.014
41.7407 1.123
41.7572 1.003
41.7737 0.910
41.7903 1.003
41.8068 1.014
41.8234 1.003
41.8399 1.003
41.8565 0.899
41.8730 0.975
41.8896 1.041
41.9061 0.981
41.9227 1.025
41.9392 0.937
41.9557 1.008
41.9723 0.964
41.9888 0.926
42.0054 0.860
42.0219 1.008
42.0385 1.008
42.0550 0.997
42.0716 1.047
42.0881 0.805
42.1047 1.030
42.1212 0.899
42.1377 1.019
42.1543 0.866
42.1708 0.860
42.1874 0.871
42.2039 1.096
42.2205 1.036
42.2370 1.025
42.2536 0.964
42.2701 1.003
42.2867 1.052
42.3032 0.921
42.3197 0.948
42.3363 1.068
42.3528 1.079
42.3694 1.041
42.3859 1.030
42.4025 0.948
42.4190 1.079
42.4356 0.926
42.4521 1.090
42.4687 1.129
42.4852 1.151
42.5017 1.030
42.5183 1.129
42.5348 1.118
42.5514 1.140
42.5679 1.014
42.5845 1.096
42.6010 1.288
42.6176 1.101
42.6341 1.151
42.6507 1.233
42.6672 1.222
42.6837 1.063
42.7003 1.277
42.7168 1.408
42.7334 1.458
42.7499 1.375
42.7665 1.452
42.7830 1.408
42.7996 1.682
42.8161 1.814
42.8327 1.742
42.8492 1.836
42.8657 1.912
42.8823 2.060
42.8988 2.411
42.9154 2.389
42.9319 2.871
42.9485 3.030
42.9650 3.545
42.9816 4.005
42.9981 4.225
43.0147 4.964
43.0312 5.759
43.0477 6.241
43.0643 7.058
43.0808 8.373
43.0974 9.715
43.1139 10.860
43.1305 13.403
43.1470 16.153
43.1636 19.551
43.1801 24.181
43.1967 29.737
43.2132 35.649
43.2297 42.077
43.2463 46.033
43.2628 49.173
43.2794 46.016
43.2959 40.893
43.3125 35.490
43.3290 30.625
43.3456 27.742
43.3621 27.036
43.3787 26.334
43.3952 22.093
43.4117 17.819
43.4283 13.710
43.4448 9.123
43.4614 6.899
43.4779 5.090
43.4945 4.247
43.5110 3.595
43.5276 2.866
43.5441 2.773
43.5606 2.367
43.5772 2.258
43.5937 1.989
43.6103 1.901
43.6268 1.764
43.6434 1.595
43.6599 1.507
43.6765 1.556
43.6930 1.490
43.7096 1.447
43.7261 1.200
43.7426 1.474
43.7592 1.326
43.7757 1.348
43.7923 1.178
43.8088 1.326
43.8254 1.260
43.8419 1.173
43.8585 1.129
43.8750 1.195
43.8916 1.129
43.9081 1.156
43.9246 1.134
43.9412 1.025
43.9577 1.030
43.9743 1.167
43.9908 0.992
44.0074 0.948
44.0239 1.019
44.0405 0.975
44.0570 0.948
44.0736 0.959
44.0901 0.970
44.1066 0.877
44.1232 0.992
44.1397 0.942
44.1563 0.981
44.1728 1.025
44.1894 0.915
44.2059 0.970
44.2225 0.893
44.2390 0.888
44.2556 0.942
44.2721 0.910
44.2886 0.888
44.3052 0.871
44.3217 0.855
44.3383 0.888
44.3548 0.942
44.3714 1.014
44.3879 0.860
44.4045 0.992
44.4210 0.789
44.4376 0.877
44.4541 0.893
44.4706 0.877
44.4872 0.893
44.5037 0.849
44.5203 0.910
44.5368 0.926
44.5534 0.877
44.5699 0.816
44.5865 0.888
44.6030 0.855
44.6196 0.718
44.6361 0.756
44.6526 0.849
44.6692 0.838
44.6857 0.816
44.7023 0.795
44.7188 0.816
44.7354 0.888
44.7519 0.723
44.7685 0.729
44.7850 0.866
44.8016 0.811
44.8181 0.734
44.8346 0.778
44.8512 0.811
44.8677 0.784
44.8843 0.690
44.9008 0.855
44.9174 0.855
44.9339 0.833
44.9505 0.751
44.9670 0.942
44.9836 0.877
45.0001 0.800
45.0166 0.784
45.0332 0.855
45.0497 0.707
45.0663 0.756
45.0828 0.838
45.0994 0.778
45.1159 0.795
45.1325 0.685
45.1490 0.685
45.1656 0.712
45.1821 0.816
45.1986 0.729
45.2152 0.784
45.2317 0.805
45.2483 0.734
45.2648 0.855
45.2814 0.811
45.2979 0.707
45.3145 0.762
45.3310 0.723
45.3476 0.838
45.3641 0.899
45.3806 0.800
45.3972 0.756
45.4137 0.805
45.4303 0.849
45.4468 0.734
45.4634 0.756
45.4799 0.816
45.4965 0.827
45.5130 0.751
45.5296 0.701
45.5461 0.701
45.5626 0.844
45.5792 0.701
45.5957 0.800
45.6123 0.844
45.6288 0.855
45.6454 0.718
45.6619 0.805
45.6785 0.789
45.6950 0.795
45.7116 0.729
45.7281 0.751
45.7446 0.734
45.7612 0.718
45.7777 0.745
45.7943 0.740
45.8108 0.827
45.8274 0.647
45.8439 0.805
45.8605 0.778
45.8770 0.915
45.8936 0.833
45.9101 0.915
45.9266 0.827
45.9432 0.773
45.9597 0.838
45.9763 0.964
45.9928 1.019
46.0094 1.025
46.0259 1.118
46.0425 1.173
46.0590 1.299
46.0756 1.359
46.0921 1.222
46.1086 1.381
46.1252 1.277
46.1417 1.096
46.1583 1.129
46.1748 1.079
46.1914 1.118
46.2079 1.014
46.2245 1.041
46.2410 0.942
46.2575 0.926
46.2741 0.833
46.2906 0.690
46.3072 0.805
46.3237 0.855
46.3403 0.718
46.3568 0.740
46.3734 0.849
46.3899 0.767
46.4065 0.844
46.4230 0.707
46.4395 0.773
46.4561 0.652
46.4726 0.701
46.4892 0.756
46.5057 0.696
46.5223 0.586
46.5388 0.805
46.5554 0.712
46.5719 0.641
46.5885 0.707
46.6050 0.784
46.6215 0.751
46.6381 0.723
46.6546 0.712
46.6712 0.658
46.6877 0.658
46.7043 0.789
46.7208 0.740
46.7374 0.811
46.7539 0.690
46.7705 0.614
46.7870 0.762
46.8035 0.641
46.8201 0.740
46.8366 0.740
46.8532 0.773
46.8697 0.734
46.8863 0.729
46.9028 0.674
46.9194 0.614
46.9359 0.663
46.9525 0.674
46.9690 0.877
46.9855 0.663
47.0021 0.658
47.0186 0.712
47.0352 0.619
47.0517 0.816
47.0683 0.844
47.0848 0.718
47.1014 0.723
47.1179 0.685
47.1345 0.751
47.1510 0.685
47.1675 0.597
47.1841 0.625
47.2006 0.592
47.2172 0.729
47.2337 0.712
47.2503 0.668
47.2668 0.690
47.2834 0.723
47.2999 0.597
47.3165 0.647
47.3330 0.685
47.3495 0.603
47.3661 0.641
47.3826 0.619
47.3992 0.603
47.4157 0.647
47.4323 0.723
47.4488 0.674
47.4654 0.608
47.4819 0.608
47.4985 0.641
47.5150 0.515
47.5315 0.663
47.5481 0.723
47.5646 0.548
47.5812 0.751
47.5977 0.663
47.6143 0.630
47.6308 0.647
47.6474 0.701
47.6639 0.608
47.6805 0.668
47.6970 0.729
47.7135 0.762
47.7301 0.630
47.7466 0.647
47.7632 0.658
47.7797 0.592
47.7963 0.658
47.8128 0.641
47.8294 0.636
47.8459 0.586
47.8625 0.685
47.8790 0.625
47.8955 0.668
47.9121 0.564
47.9286 0.723
47.9452 0.548
47.9617 0.548
47.9783 0.668
47.9948 0.679
48.0114 0.630
48.0279 0.641
48.0445 0.581
48.0610 0.674
48.0775 0.553
48.0941 0.537
48.1106 0.592
48.1272 0.614
48.1437 0.548
48.1603 0.679
48.1768 0.493
48.1934 0.581
48.2099 0.734
48.2265 0.581
48.2430 0.575
48.2595 0.575
48.2761 0.712
48.2926 0.652
48.3092 0.608
48.3257 0.597
48.3423 0.570
48.3588 0.652
48.3754 0.521
48.3919 0.712
48.4085 0.690
48.4250 0.652
48.4415 0.625
48.4581 0.608
48.4746 0.570
48.4912 0.619
48.5077 0.542
48.5243 0.658
48.5408 0.619
48.5574 0.674
48.5739 0.542
48.5905 0.740
48.6070 0.614
48.6235 0.526
48.6401 0.581
48.6566 0.570
48.6732 0.636
48.6897 0.586
48.7063 0.647
48.7228 0.652
48.7394 0.597
48.7559 0.729
48.7725 0.663
48.7890 0.537
48.8055 0.614
48.8221 0.581
48.8386 0.641
48.8552 0.696
48.8717 0.679
48.8883 0.581
48.9048 0.575
48.9214 0.537
48.9379 0.630
48.9545 0.625
48.9710 0.636
48.9875 0.663
49.0041 0.542
49.0206 0.619
49.0372 0.597
49.0537 0.581
49.0703 0.597
49.0868 0.570
49.1034 0.647
49.1199 0.603
49.1364 0.564
49.1530 0.641
49.1695 0.521
49.1861 0.597
49.2026 0.658
49.2192 0.515
49.2357 0.608
49.2523 0.526
49.2688 0.668
49.2854 0.553
49.3019 0.641
49.3184 0.636
49.3350 0.625
49.3515 0.575
49.3681 0.553
49.3846 0.597
49.4012 0.477
49.4177 0.625
49.4343 0.553
49.4508 0.647
49.4674 0.597
49.4839 0.668
49.5004 0.625
49.5170 0.515
49.5335 0.608
49.5501 0.658
49.5666 0.592
49.5832 0.663
49.5997 0.499
49.6163 0.658
49.6328 0.647
49.6494 0.658
49.6659 0.521
49.6824 0.614
49.6990 0.581
49.7155 0.679
49.7321 0.510
49.7486 0.586
49.7652 0.652
49.7817 0.608
49.7983 0.603
49.8148 0.526
49.8314 0.636
49.8479 0.614
49.8644 0.603
49.8810 0.641
49.8975 0.795
49.9141 0.647
49.9306 0.460
49.9472 0.614
49.9637 0.619
49.9803 0.553
49.9968 0.553
50.0134 0.663
50.0299 0.636
50.0464 0.608
50.0630 0.608
50.0795 0.652
50.0961 0.647
50.1126 0.647
50.1292 0.504
50.1457 0.592
50.1623 0.641
50.1788 0.625
50.1954 0.641
50.2119 0.553
50.2284 0.608
50.2450 0.668
50.2615 0.614
50.2781 0.652
50.2946 0.570
50.3112 0.663
50.3277 0.575
50.3443 0.553
50.3608 0.619
50.3774 0.553
50.3939 0.597
50.4104 0.614
50.4270 0.510
50.4435 0.619
50.4601 0.608
50.4766 0.712
50.4932 0.636
50.5097 0.674
50.5263 0.575
50.5428 0.641
50.5594 0.581
50.5759 0.773
50.5924 0.570
50.6090 0.756
50.6255 0.663
50.6421 0.712
50.6586 0.564
50.6752 0.592
50.6917 0.592
50.7083 0.608
50.7248 0.696
50.7414 0.630
50.7579 0.701
50.7744 0.668
50.7910 0.756
50.8075 0.740
50.8241 0.548
50.8406 0.712
50.8572 0.701
50.8737 0.668
50.8903 0.614
50.9068 0.718
50.9234 0.767
50.9399 0.619
50.9564 0.674
50.9730 0.663
50.9895 0.762
51.0061 0.707
51.0226 0.712
51.0392 0.647
51.0557 0.625
51.0723 0.729
51.0888 0.614
51.1054 0.827
51.1219 0.592
51.1384 0.658
51.1550 0.674
51.1715 0.597
51.1881 0.641
51.2046 0.756
51.2212 0.652
51.2377 0.603
51.2543 0.701
51.2708 0.592
51.2874 0.668
51.3039 0.778
51.3204 0.712
51.3370 0.816
51.3535 0.668
51.3701 0.718
51.3866 0.762
51.4032 0.877
51.4197 0.679
51.4363 0.844
51.4528 0.773
51.4694 0.729
51.4859 0.833
51.5024 0.690
51.5190 0.701
51.5355 0.707
51.5521 0.712
51.5686 0.668
51.5852 0.773
51.6017 0.674
51.6183 0.696
51.6348 0.641
51.6514 0.696
51.6679 0.685
51.6844 0.767
51.7010 0.762
51.7175 0.838
51.7341 0.718
51.7506 0.729
51.7672 0.827
51.7837 0.893
51.8003 0.838
51.8168 0.844
51.8333 0.789
51.8499 0.866
51.8664 0.811
51.8830 0.811
51.8995 0.849
51.9161 0.767
51.9326 1.068
51.9492 1.074
51.9657 0.964
51.9823 1.030
51.9988 1.107
52.0153 1.140
52.0319 1.337
52.0484 1.107
52.0650 1.447
52.0815 1.562
52.0981 1.699
52.1146 1.962
52.1312 1.901
52.1477 2.197
52.1643 2.252
52.1808 2.564
52.1973 3.074
52.2139 2.805
52.2304 3.529
52.2470 4.055
52.2635 4.860
52.2801 5.118
52.2966 5.973
52.3132 6.822
52.3297 8.718
52.3463 10.263
52.3628 11.978
52.3793 15.036
52.3959 16.553
52.4124 19.255
52.4290 19.819
52.4455 19.923
52.4621 18.614
52.4786 15.622
52.4952 12.805
52.5117 11.222
52.5283 10.438
52.5448 11.063
52.5613 11.041
52.5779 10.329
52.5944 9.381
52.6110 8.416
52.6275 6.301
52.6441 4.948
52.6606 3.375
52.6772 2.701
52.6937 2.301
52.7103 2.033
52.7268 1.638
52.7433 1.512
52.7599 1.441
52.7764 1.189
52.7930 1.140
52.8095 0.959
52.8261 1.096
52.8426 1.129
52.8592 0.970
52.8757 0.932
52.8923 1.014
52.9088 0.910
52.9253 1.019
52.9419 0.866
52.9584 0.767
52.9750 0.838
52.9915 0.800
53.0081 0.904
53.0246 0.811
53.0412 0.690
53.0577 0.740
53.0743 0.707
53.0908 0.762
53.1073 0.811
53.1239 0.745
53.1404 0.641
53.1570 0.603
53.1735 0.641
53.1901 0.696
53.2066 0.614
53.2232 0.679
53.2397 0.740
53.2563 0.696
53.2728 0.805
53.2893 0.658
53.3059 0.701
53.3224 0.658
53.3390 0.603
53.3555 0.647
53.3721 0.614
53.3886 0.729
53.4052 0.751
53.4217 0.625
53.4383 0.663
53.4548 0.658
53.4713 0.581
53.4879 0.542
53.5044 0.630
53.5210 0.559
53.5375 0.658
53.5541 0.658
53.5706 0.619
53.5872 0.619
53.6037 0.515
53.6203 0.663
53.6368 0.641
53.6533 0.570
53.6699 0.636
53.6864 0.515
53.7030 0.592
53.7195 0.690
53.7361 0.537
53.7526 0.652
53.7692 0.641
53.7857 0.603
53.8023 0.658
53.8188 0.685
53.8353 0.641
53.8519 0.570
53.8684 0.729
53.8850 0.597
53.9015 0.597
53.9181 0.619
53.9346 0.597
53.9512 0.619
53.9677 0.537
53.9843 0.553
54.0008 0.553
54.0173 0.564
54.0339 0.586
54.0504 0.663
54.0670 0.597
54.0835 0.608
54.1001 0.553
54.1166 0.647
54.1332 0.586
54.1497 0.668
54.1663 0.614
54.1828 0.526
54.1993 0.510
54.2159 0.614
54.2324 0.668
54.2490 0.542
54.2655 0.526
54.2821 0.548
54.2986 0.559
54.3152 0.658
54.3317 0.586
54.3483 0.504
54.3648 0.575
54.3813 0.603
54.3979 0.586
54.4144 0.597
54.4310 0.647
54.4475 0.548
54.4641 0.510
54.4806 0.482
54.4972 0.603
54.5137 0.526
54.5302 0.564
54.5468 0.564
54.5633 0.668
54.5799 0.619
54.5964 0.641
54.6130 0.630
54.6295 0.542
54.6461 0.526
54.6626 0.581
54.6792 0.608
54.6957 0.608
54.7122 0.597
54.7288 0.548
54.7453 0.625
54.7619 0.564
54.7784 0.641
54.7950 0.614
54.8115 0.658
54.8281 0.652
54.8446 0.641
54.8612 0.444
54.8777 0.564
54.8942 0.521
54.9108 0.658
54.9273 0.586
54.9439 0.592
54.9604 0.668
54.9770 0.564
54.9935 0.564
55.0101 0.592
55.0266 0.625
55.0432 0.619
55.0597 0.532
55.0762 0.553
55.0928 0.493
55.1093 0.647
55.1259 0.504
55.1424 0.603
55.1590 0.696
55.1755 0.553
55.1921 0.663
55.2086 0.652
55.2252 0.608
55.2417 0.603
55.2582 0.619
55.2748 0.685
55.2913 0.668
55.3079 0.707
55.3244 0.805
55.3410 0.592
55.3575 0.718
55.3741 0.718
55.3906 0.718
55.4072 0.723
55.4237 0.707
55.4402 0.586
55.4568 0.811
55.4733 0.674
55.4899 0.696
55.5064 0.636
55.5230 0.723
55.5395 0.690
55.5561 0.652
55.5726 0.636
55.5892 0.690
55.6057 0.685
55.6222 0.630
55.6388 0.734
55.6553 0.696
55.6719 0.614
55.6884 0.767
55.7050 0.658
55.7215 0.767
55.7381 0.685
55.7546 0.805
55.7712 0.663
55.7877 0.751
55.8042 0.833
55.8208 0.625
55.8373 0.641
55.8539 0.564
55.8704 0.718
55.8870 0.784
55.9035 0.690
55.9201 0.625
55.9366 0.718
55.9532 0.762
55.9697 0.641
55.9862 0.773
56.0028 0.712
56.0193 0.668
56.0359 0.647
56.0524 0.745
56.0690 0.822
56.0855 0.734
56.1021 0.592
56.1186 0.734
56.1352 0.718
56.1517 0.641
56.1682 0.718
56.1848 0.647
56.2013 0.740
56.2179 0.608
56.2344 0.696
56.2510 0.592
56.2675 0.723
56.2841 0.685
56.3006 0.668
56.3172 0.712
56.3337 0.827
56.3502 0.674
56.3668 0.740
56.3833 0.751
56.3999 0.674
56.4164 0.658
56.4330 0.827
56.4495 0.690
56.4661 0.784
56.4826 0.679
56.4992 0.773
56.5157 0.844
56.5322 0.784
56.5488 0.805
56.5653 0.712
56.5819 0.904
56.5984 0.789
56.6150 0.855
56.6315 0.827
56.6481 1.058
56.6646 0.866
56.6812 0.860
56.6977 0.953
56.7142 0.975
56.7308 0.932
56.7473 0.964
56.7639 0.997
56.7804 0.981
56.7970 1.123
56.8135 1.156
56.8301 1.085
56.8466 1.222
56.8632 1.227
56.8797 1.353
56.8962 1.479
56.9128 1.332
56.9293 1.693
56.9459 1.677
56.9624 1.874
56.9790 2.088
56.9955 2.290
57.0121 2.559
57.0286 2.603
57.0452 3.085
57.0617 3.255
57.0782 3.507
57.0948 4.115
57.1113 4.619
57.1279 5.485
57.1444 5.781
57.1610 6.537
57.1775 7.375
57.1941 8.597
57.2106 10.345
57.2272 12.318
57.2437 14.033
57.2602 17.047
57.2768 19.704
57.2933 23.436
57.3099 27.611
57.3264 31.523
57.3430 35.266
57.3595 39.079
57.3761 38.756
57.3926 35.485
57.4091 29.540
57.4257 25.315
57.4422 20.888
57.4588 19.348
57.4753 19.134
57.4919 19.808
57.5084 20.510
57.5250 20.405
57.5415 17.660
57.5581 15.036
57.5746 11.693
57.5911 8.521
57.6077 5.918
57.6242 5.047
57.6408 3.879
57.6573 3.216
57.6739 2.581
57.6904 2.438
57.7070 2.247
57.7235 2.000
57.7401 1.836
57.7566 1.814
57.7731 1.704
57.7897 1.260
57.8062 1.337
57.8228 1.200
57.8393 1.255
57.8559 1.195
57.8724 1.195
57.8890 1.068
57.9055 0.942
57.9221 1.079
57.9386 0.915
57.9551 0.959
57.9717 0.997
57.9882 1.079
58.0048 0.921
58.0213 0.899
58.0379 0.822
58.0544 0.882
58.0710 0.860
58.0875 0.877
58.1041 0.855
58.1206 0.855
58.1371 0.795
58.1537 0.899
58.1702 0.860
58.1868 0.860
58.2033 0.701
58.2199 0.784
58.2364 0.745
58.2530 0.789
58.2695 0.767
58.2861 0.827
58.3026 0.734
58.3191 0.696
58.3357 0.751
58.3522 0.745
58.3688 0.762
58.3853 0.789
58.4019 0.696
58.4184 0.652
58.4350 0.674
58.4515 0.734
58.4681 0.701
58.4846 0.625
58.5011 0.827
58.5177 0.625
58.5342 0.674
58.5508 0.581
58.5673 0.734
58.5839 0.586
58.6004 0.745
58.6170 0.723
58.6335 0.668
58.6501 0.734
58.6666 0.592
58.6831 0.608
58.6997 0.652
58.7162 0.663
58.7328 0.674
58.7493 0.647
58.7659 0.575
58.7824 0.685
58.7990 0.608
58.8155 0.608
58.8321 0.641
58.8486 0.581
58.8651 0.729
58.8817 0.641
58.8982 0.619
58.9148 0.603
58.9313 0.532
58.9479 0.564
58.9644 0.614
58.9810 0.647
58.9975 0.586
59.0141 0.658
59.0306 0.532
59.0471 0.614
59.0637 0.603
59.0802 0.663
59.0968 0.603
59.1133 0.597
59.1299 0.679
59.1464 0.608
59.1630 0.679
59.1795 0.625
59.1961 0.641
59.2126 0.756
59.2291 0.575
59.2457 0.773
59.2622 0.690
59.2788 0.674
59.2953 0.586
59.3119 0.751
59.3284 0.701
59.3450 0.707
59.3615 0.723
59.3781 0.679
59.3946 0.718
59.4111 0.707
59.4277 0.718
59.4442 0.773
59.4608 0.970
59.4773 0.855
59.4939 1.058
59.5104 1.041
59.5270 1.151
59.5435 1.118
59.5601 1.392
59.5766 1.458
59.5931 1.364
59.6097 1.507
59.6262 1.534
59.6428 1.304
59.6593 1.332
59.6759 1.025
59.6924 1.096
59.7090 1.101
59.7255 1.019
59.7421 1.156
59.7586 1.036
59.7751 1.096
59.7917 1.036
59.8082 0.877
59.8248 0.838
59.8413 0.762
59.8579 0.827
59.8744 0.663
59.8910 0.729
59.9075 0.575
59.9241 0.658
59.9406 0.581
59.9571 0.679
59.9737 0.619
59.9902 0.630
60.0068 0.603
60.0233 0.712
60.0399 0.553
60.0564 0.597
60.0730 0.619
60.0895 0.581
60.1060 0.537
60.1226 0.586
60.1391 0.581
60.1557 0.614
60.1722 0.575
60.1888 0.559
60.2053 0.712
60.2219 0.652
60.2384 0.597
60.2550 0.614
60.2715 0.564
60.2880 0.625
60.3046 0.674
60.3211 0.564
60.3377 0.597
60.3542 0.575
60.3708 0.482
60.3873 0.521
60.4039 0.521
60.4204 0.603
60.4370 0.707
60.4535 0.526
60.4700 0.603
60.4866 0.696
60.5031 0.679
60.5197 0.767
60.5362 0.526
60.5528 0.625
60.5693 0.619
60.5859 0.729
60.6024 0.707
60.6190 0.636
60.6355 0.712
60.6520 0.729
60.6686 0.751
60.6851 0.723
60.7017 0.778
60.7182 0.751
60.7348 0.888
60.7513 0.855
60.7679 0.860
60.7844 0.904
60.8010 1.123
60.8175 0.871
60.8340 1.019
60.8506 1.195
60.8671 1.255
60.8837 1.293
60.9002 1.616
60.9168 1.753
60.9333 1.715
60.9499 1.945
60.9664 2.208
60.9830 2.296
60.9995 2.422
61.0160 2.400
61.0326 2.729
61.0491 2.526
61.0657 2.592
61.0822 2.866
61.0988 3.255
61.1153 3.452
61.1319 3.830
61.1484 4.142
61.1650 3.973
61.1815 3.589
61.1980 3.249
61.2146 2.740
61.2311 2.455
61.2477 2.121
61.2642 2.093
61.2808 1.940
61.2973 2.000
61.3139 1.868
61.3304 2.345
61.3470 1.907
61.3635 1.858
61.3800 1.200
61.3966 1.145
61.4131 0.964
61.4297 0.795
61.4462 0.740
61.4628 0.904
61.4793 0.674
61.4959 0.668
61.5124 0.581
61.5290 0.581
61.5455 0.679
61.5620 0.674
61.5786 0.559
61.5951 0.679
61.6117 0.679
61.6282 0.663
61.6448 0.674
61.6613 0.559
61.6779 0.608
61.6944 0.625
61.7110 0.493
61.7275 0.636
61.7440 0.532
61.7606 0.493
61.7771 0.553
61.7937 0.526
61.8102 0.570
61.8268 0.553
61.8433 0.438
61.8599 0.493
61.8764 0.515
61.8930 0.488
61.9095 0.504
61.9260 0.679
61.9426 0.504
61.9591 0.510
61.9757 0.647
61.9922 0.559
62.0088 0.488
62.0253 0.581
62.0419 0.488
62.0584 0.592
62.0750 0.488
62.0915 0.504
62.1080 0.510
62.1246 0.597
62.1411 0.521
62.1577 0.570
62.1742 0.493
62.1908 0.504
62.2073 0.504
62.2239 0.526
62.2404 0.553
62.2570 0.471
62.2735 0.575
62.2900 0.455
62.3066 0.553
62.3231 0.537
62.3397 0.586
62.3562 0.488
62.3728 0.444
62.3893 0.504
62.4059 0.526
62.4224 0.510
62.4390 0.608
62.4555 0.499
62.4720 0.504
62.4886 0.427
62.5051 0.477
62.5217 0.586
62.5382 0.575
62.5548 0.504
62.5713 0.493
62.5879 0.553
62.6044 0.499
62.6210 0.641
62.6375 0.542
62.6540 0.608
62.6706 0.427
62.6871 0.499
62.7037 0.460
62.7202 0.553
62.7368 0.575
62.7533 0.395
62.7699 0.559
62.7864 0.488
62.8029 0.537
62.8195 0.504
62.8360 0.526
62.8526 0.389
62.8691 0.471
62.8857 0.411
62.9022 0.477
62.9188 0.570
62.9353 0.378
62.9519 0.542
62.9684 0.542
62.9849 0.444
63.0015 0.542
63.0180 0.521
63.0346 0.504
63.0511 0.488
63.0677 0.504
63.0842 0.482
63.1008 0.521
63.1173 0.493
63.1339 0.636
63.1504 0.504
63.1669 0.597
63.1835 0.482
63.2000 0.477
63.2166 0.455
63.2331 0.499
63.2497 0.422
63.2662 0.460
63.2828 0.449
63.2993 0.521
63.3159 0.559
63.3324 0.499
63.3489 0.395
63.3655 0.466
63.3820 0.477
63.3986 0.488
63.4151 0.444
63.4317 0.532
63.4482 0.510
63.4648 0.482
63.4813 0.521
63.4979 0.362
63.5144 0.444
63.5309 0.378
63.5475 0.499
63.5640 0.455
63.5806 0.548
63.5971 0.515
63.6137 0.504
63.6302 0.416
63.6468 0.455
63.6633 0.499
63.6799 0.542
63.6964 0.521
63.7129 0.499
63.7295 0.438
63.7460 0.504
63.7626 0.460
63.7791 0.466
63.7957 0.477
63.8122 0.438
63.8288 0.493
63.8453 0.619
63.8619 0.548
63.8784 0.449
63.8949 0.444
63.9115 0.542
63.9280 0.559
63.9446 0.455
63.9611 0.575
63.9777 0.510
63.9942 0.416
64.0108 0.477
64.0273 0.515
64.0439 0.482
64.0604 0.482
64.0769 0.526
64.0935 0.553
64.1100 0.499
64.1266 0.499
64.1431 0.559
64.1597 0.630
64.1762 0.422
64.1928 0.521
64.2093 0.542
64.2259 0.521
64.2424 0.477
64.2589 0.521
64.2755 0.477
64.2920 0.499
64.3086 0.581
64.3251 0.504
64.3417 0.438
64.3582 0.515
64.3748 0.515
64.3913 0.564
64.4079 0.532
64.4244 0.521
64.4409 0.499
64.4575 0.603
64.4740 0.570
64.4906 0.532
64.5071 0.542
64.5237 0.499
64.5402 0.493
64.5568 0.482
64.5733 0.542
64.5899 0.515
64.6064 0.586
64.6229 0.548
64.6395 0.444
64.6560 0.570
64.6726 0.493
64.6891 0.575
64.7057 0.504
64.7222 0.427
64.7388 0.652
64.7553 0.652
64.7719 0.477
64.7884 0.548
64.8049 0.559
64.8215 0.564
64.8380 0.603
64.8546 0.444
64.8711 0.619
64.8877 0.575
64.9042 0.575
64.9208 0.581
64.9373 0.499
64.9539 0.690
64.9704 0.619
64.9869 0.630
65.0035 0.515
65.0200 0.499
65.0366 0.564
65.0531 0.586
65.0697 0.499
65.0862 0.504
65.1028 0.564
65.1193 0.592
65.1359 0.493
65.1524 0.548
65.1689 0.482
65.1855 0.564
65.2020 0.521
65.2186 0.575
65.2351 0.564
65.2517 0.641
65.2682 0.564
65.2848 0.559
65.3013 0.581
65.3179 0.597
65.3344 0.647
65.3509 0.614
65.3675 0.603
65.3840 0.641
65.4006 0.625
65.4171 0.537
65.4337 0.603
65.4502 0.685
65.4668 0.674
65.4833 0.636
65.4999 0.597
65.5164 0.636
65.5329 0.608
65.5495 0.542
65.5660 0.542
65.5826 0.679
65.5991 0.734
65.6157 0.707
65.6322 0.586
65.6488 0.663
65.6653 0.663
65.6818 0.701
65.6984 0.679
65.7149 0.690
65.7315 0.630
65.7480 0.668
65.7646 0.723
65.7811 0.712
65.7977 0.723
65.8142 0.745
65.8308 0.707
65.8473 0.789
65.8638 0.975
65.8804 0.959
65.8969 0.899
65.9135 0.964
65.9300 1.030
65.9466 1.227
65.9631 1.129
65.9797 1.008
65.9962 1.200
66.0128 1.321
66.0293 1.452
66.0458 1.556
66.0624 1.737
66.0789 1.863
66.0955 1.934
66.1120 1.989
66.1286 2.356
66.1451 2.745
66.1617 3.008
66.1782 3.397
66.1948 3.984
66.2113 4.362
66.2278 4.767
66.2444 6.197
66.2609 6.575
66.2775 7.912
66.2940 9.090
66.3106 10.301
66.3271 12.427
66.3437 13.107
66.3602 13.474
66.3768 13.918
66.3933 12.959
66.4098 10.619
66.4264 8.422
66.4429 7.397
66.4595 6.773
66.4760 6.575
66.4926 6.663
66.5091 6.630
66.5257 7.189
66.5422 7.205
66.5588 7.501
66.5753 6.137
66.5918 5.496
66.6084 4.636
66.6249 3.353
66.6415 2.652
66.6580 2.077
66.6746 1.836
66.6911 1.397
66.7077 1.397
66.7242 1.326
66.7408 1.140
66.7573 1.167
66.7738 1.107
66.7904 1.008
66.8069 0.811
66.8235 0.904
66.8400 0.953
66.8566 0.877
66.8731 0.712
66.8897 0.926
66.9062 0.844
66.9228 0.877
66.9393 0.729
66.9558 0.767
66.9724 0.964
66.9889 0.734
67.0055 0.723
67.0220 0.784
67.0386 0.751
67.0551 0.816
67.0717 0.690
67.0882 0.636
67.1048 0.751
67.1213 0.756
67.1378 0.751
67.1544 0.674
67.1709 0.789
67.1875 0.668
67.2040 0.762
67.2206 0.816
67.2371 0.674
67.2537 0.745
67.2702 0.723
67.2868 0.773
67.3033 0.762
67.3198 0.641
67.3364 0.756
67.3529 0.855
67.3695 0.712
67.3860 0.816
67.4026 0.915
67.4191 0.822
67.4357 0.811
67.4522 0.849
67.4688 0.937
67.4853 0.948
67.5018 0.871
67.5184 0.953
67.5349 1.008
67.5515 0.877
67.5680 1.173
67.5846 1.200
67.6011 1.118
67.6177 1.260
67.6342 1.342
67.6508 1.342
67.6673 1.479
67.6838 1.474
67.7004 1.775
67.7169 1.737
67.7335 1.890
67.7500 2.329
67.7666 2.411
67.7831 2.658
67.7997 3.074
67.8162 3.288
67.8328 3.781
67.8493 4.263
67.8658 4.597
67.8824 5.255
67.8989 6.258
67.9155 6.937
67.9320 8.159
67.9486 10.049
67.9651 11.441
67.9817 13.474
67.9982 15.304
68.0148 17.836
68.0313 19.715
68.0478 20.532
68.0644 20.268
68.0809 18.088
68.0975 15.304
68.1140 12.838
68.1306 10.553
68.1471 9.490
68.1637 9.145
68.1802 9.090
68.1968 9.485
68.2133 10.460
68.2298 10.219
68.2464 10.986
68.2629 9.764
68.2795 8.668
68.2960 6.608
68.3126 4.926
68.3291 3.912
68.3457 3.156
68.3622 2.378
68.3787 2.356
68.3953 1.737
68.4118 1.677
68.4284 1.381
68.4449 1.315
68.4615 1.277
68.4780 1.162
68.4946 1.090
68.5111 0.981
68.5277 0.882
68.5442 0.882
68.5607 0.888
68.5773 0.844
68.5938 0.773
68.6104 0.827
68.6269 0.740
68.6435 0.773
68.6600 0.723
68.6766 0.833
68.6931 0.663
68.7097 0.707
68.7262 0.734
68.7427 0.690
68.7593 0.658
68.7758 0.608
68.7924 0.745
68.8089 0.658
68.8255 0.608
68.8420 0.663
68.8586 0.608
68.8751 0.564
68.8917 0.658
68.9082 0.570
68.9247 0.636
68.9413 0.729
68.9578 0.603
68.9744 0.592
68.9909 0.548
69.0075 0.696
69.0240 0.625
69.0406 0.532
69.0571 0.460
69.0737 0.608
69.0902 0.488
69.1067 0.499
69.1233 0.553
69.1398 0.537
69.1564 0.553
69.1729 0.488
69.1895 0.532
69.2060 0.548
69.2226 0.641
69.2391 0.466
69.2557 0.515
69.2722 0.542
69.2887 0.564
69.3053 0.488
69.3218 0.482
69.3384 0.597
69.3549 0.526
69.3715 0.482
69.3880 0.449
69.4046 0.510
69.4211 0.526
69.4377 0.570
69.4542 0.586
69.4707 0.559
69.4873 0.515
69.5038 0.619
69.5204 0.449
69.5369 0.416
69.5535 0.482
69.5700 0.449
69.5866 0.592
69.6031 0.395
69.6197 0.477
69.6362 0.532
69.6527 0.526
69.6693 0.548
69.6858 0.471
69.7024 0.411
69.7189 0.433
69.7355 0.532
69.7520 0.504
69.7686 0.477
69.7851 0.411
69.8017 0.504
69.8182 0.532
69.8347 0.504
69.8513 0.581
69.8678 0.526
69.8844 0.460
69.9009 0.553
69.9175 0.575
69.9340 0.575
69.9506 0.592
69.9671 0.515
69.9837 0.575
70.0002 0.521
