'Id: "" Comment: "" Operator: "Administrator" Anode: "Cu" Scantype: "Locked Coupled" TimePerStep: "182.5" X: "0" Y: "0" Z: "0" 
20.0000 2.603
20.0165 2.455
20.0331 2.603
20.0496 2.619
20.0662 2.603
20.0827 2.745
20.0993 2.586
20.1158 2.625
20.1324 2.290
20.1489 2.329
20.1655 2.570
20.1820 2.899
20.1985 2.614
20.2151 2.784
20.2316 2.389
20.2482 2.526
20.2647 2.334
20.2813 2.630
20.2978 2.592
20.3144 2.625
20.3309 2.559
20.3475 2.460
20.3640 2.548
20.3805 2.663
20.3971 2.433
20.4136 2.537
20.4302 2.532
20.4467 2.679
20.4633 2.586
20.4798 2.701
20.4964 2.663
20.5129 2.427
20.5295 2.515
20.5460 2.427
20.5625 2.477
20.5791 2.729
20.5956 2.422
20.6122 2.362
20.6287 2.652
20.6453 2.532
20.6618 2.548
20.6784 2.581
20.6949 2.712
20.7115 2.351
20.7280 2.586
20.7445 2.751
20.7611 2.570
20.7776 2.290
20.7942 2.362
20.8107 2.526
20.8273 2.279
20.8438 2.362
20.8604 2.362
20.8769 2.592
20.8935 2.537
20.9100 2.455
20.9265 2.493
20.9431 2.351
20.9596 2.389
20.9762 2.542
20.9927 2.422
21.0093 2.471
21.0258 2.455
21.0424 2.466
21.0589 2.279
21.0755 2.411
21.0920 2.444
21.1085 2.510
21.1251 2.564
21.1416 2.389
21.1582 2.384
21.1747 2.504
21.1913 2.597
21.2078 2.301
21.2244 2.416
21.2409 2.466
21.2575 2.559
21.2740 2.493
21.2905 2.586
21.3071 2.312
21.3236 2.258
21.3402 2.362
21.3567 2.329
21.3733 2.318
21.3898 2.427
21.4064 2.351
21.4229 2.575
21.4394 2.186
21.4560 2.247
21.4725 2.389
21.4891 2.263
21.5056 2.334
21.5222 2.608
21.5387 2.247
21.5553 2.499
21.5718 2.362
21.5884 2.285
21.6049 2.395
21.6214 2.230
21.6380 2.553
21.6545 2.400
21.6711 2.515
21.6876 2.405
21.7042 2.329
21.7207 2.312
21.7373 2.422
21.7538 2.334
21.7704 2.488
21.7869 2.329
21.8034 2.279
21.8200 2.307
21.8365 2.323
21.8531 2.493
21.8696 2.214
21.8862 2.373
21.9027 2.422
21.9193 2.323
21.9358 2.126
21.9524 2.279
21.9689 2.241
21.9854 2.427
22.0020 2.334
22.0185 2.367
22.0351 2.268
22.0516 2.186
22.0682 2.400
22.0847 2.384
22.1013 2.389
22.1178 2.318
22.1344 2.384
22.1509 2.373
22.1674 2.214
22.1840 2.203
22.2005 2.230
22.2171 2.395
22.2336 2.181
22.2502 2.312
22.2667 2.236
22.2833 2.236
22.2998 2.170
22.3164 2.164
22.3329 2.356
22.3494 2.088
22.3660 2.290
22.3825 2.230
22.3991 2.219
22.4156 2.121
22.4322 2.060
22.4487 2.170
22.4653 2.126
22.4818 2.340
22.4984 2.203
22.5149 2.153
22.5314 1.967
22.5480 2.334
22.5645 2.241
22.5811 2.099
22.5976 2.258
22.6142 2.252
22.6307 2.126
22.6473 2.285
22.6638 2.093
22.6804 2.175
22.6969 2.252
22.7134 2.142
22.7300 2.340
22.7465 2.203
22.7631 2.055
22.7796 2.175
22.7962 2.197
22.8127 2.033
22.8293 2.153
22.8458 2.181
22.8624 2.175
22.8789 2.170
22.8954 2.082
22.9120 2.121
22.9285 2.071
22.9451 1.951
22.9616 2.192
22.9782 2.148
22.9947 2.225
23.0113 2.203
23.0278 2.066
23.0444 2.038
23.0609 2.279
23.0774 2.088
23.0940 2.148
23.1105 2.252
23.1271 2.181
23.1436 1.940
23.1602 2.104
23.1767 2.011
23.1933 2.115
23.2098 2.099
23.2264 2.033
23.2429 2.071
23.2594 2.033
23.2760 2.159
23.2925 2.115
23.3091 2.077
23.3256 2.351
23.3422 2.132
23.3587 2.137
23.3753 1.918
23.3918 1.890
23.4084 2.027
23.4249 2.099
23.4414 2.049
23.4580 2.022
23.4745 2.044
23.4911 2.285
23.5076 2.208
23.5242 1.923
23.5407 2.263
23.5573 1.951
23.5738 1.984
23.5904 2.148
23.6069 2.170
23.6234 2.236
23.6400 2.219
23.6565 2.044
23.6731 1.868
23.6896 2.088
23.7062 2.121
23.7227 2.159
23.7393 2.329
23.7558 2.038
23.7724 2.175
23.7889 2.318
23.8054 2.225
23.8220 2.312
23.8385 2.230
23.8551 2.378
23.8716 2.236
23.8882 2.225
23.9047 2.301
23.9213 2.340
23.9378 2.137
23.9544 2.208
23.9709 2.258
23.9874 2.290
24.0040 2.137
24.0205 2.247
24.0371 2.422
24.0536 2.230
24.0702 2.477
24.0867 2.477
24.1033 2.488
24.1198 2.449
24.1364 2.532
24.1529 2.318
24.1694 2.301
24.1860 2.636
24.2025 2.433
24.2191 2.740
24.2356 2.608
24.2522 2.608
24.2687 2.559
24.2853 2.575
24.3018 2.510
24.3183 2.405
24.3349 2.504
24.3514 2.723
24.3680 2.630
24.3845 2.625
24.4011 2.597
24.4176 2.668
24.4342 2.614
24.4507 2.373
24.4673 2.581
24.4838 2.581
24.5003 2.548
24.5169 2.570
24.5334 2.455
24.5500 2.647
24.5665 2.608
24.5831 2.778
24.5996 2.690
24.6162 2.745
24.6327 2.685
24.6493 2.745
24.6658 2.455
24.6823 2.778
24.6989 2.767
24.7154 2.679
24.7320 2.597
24.7485 2.778
24.7651 2.592
24.7816 2.658
24.7982 2.734
24.8147 2.658
24.8313 2.707
24.8478 2.762
24.8643 2.647
24.8809 2.778
24.8974 2.926
24.9140 2.767
24.9305 2.663
24.9471 2.910
24.9636 2.767
24.9802 2.778
24.9967 2.805
25.0133 2.866
25.0298 2.899
25.0463 2.581
25.0629 2.625
25.0794 2.948
25.0960 2.877
25.1125 2.948
25.1291 3.041
25.1456 3.200
25.1622 2.932
25.1787 3.129
25.1953 3.008
25.2118 3.255
25.2283 3.512
25.2449 3.397
25.2614 3.825
25.2780 3.600
25.2945 4.263
25.3111 4.471
25.3276 4.756
25.3442 5.271
25.3607 5.523
25.3773 6.712
25.3938 7.430
25.4103 8.827
25.4269 10.258
25.4434 13.458
25.4600 15.748
25.4765 19.748
25.4931 25.074
25.5096 31.184
25.5262 35.299
25.5427 36.564
25.5593 35.995
25.5758 32.636
25.5923 28.773
25.6089 23.890
25.6254 19.830
25.6420 15.145
25.6585 11.299
25.6751 9.019
25.6916 6.301
25.7082 5.430
25.7247 4.510
25.7413 4.022
25.7578 3.803
25.7743 3.458
25.7909 3.397
25.8074 2.948
25.8240 3.123
25.8405 3.085
25.8571 3.041
25.8736 2.652
25.8902 2.997
25.9067 2.767
25.9233 2.636
25.9398 2.460
25.9563 2.723
25.9729 2.499
25.9894 2.597
26.0060 2.455
26.0225 2.488
26.0391 2.460
26.0556 2.532
26.0722 2.499
26.0887 2.411
26.1053 2.460
26.1218 2.389
26.1383 2.268
26.1549 2.290
26.1714 2.362
26.1880 2.268
26.2045 2.460
26.2211 2.482
26.2376 2.356
26.2542 2.225
26.2707 2.082
26.2873 2.455
26.3038 2.241
26.3203 2.345
26.3369 2.477
26.3534 2.345
26.3700 2.318
26.3865 2.110
26.4031 2.416
26.4196 2.236
26.4362 2.236
26.4527 2.252
26.4693 2.121
26.4858 2.115
26.5023 2.148
26.5189 2.175
26.5354 2.104
26.5520 2.132
26.5685 2.088
26.5851 2.110
26.6016 2.142
26.6182 2.142
26.6347 1.995
26.6513 2.049
26.6678 2.192
26.6843 2.312
26.7009 2.290
26.7174 2.016
26.7340 2.197
26.7505 2.208
26.7671 1.934
26.7836 1.962
26.8002 1.967
26.8167 2.132
26.8333 2.038
26.8498 2.066
26.8663 2.077
26.8829 2.142
26.8994 1.995
26.9160 2.022
26.9325 1.912
26.9491 1.923
26.9656 1.956
26.9822 2.044
26.9987 1.874
27.0152 1.989
27.0318 2.044
27.0483 2.093
27.0649 1.940
27.0814 1.940
27.0980 2.268
27.1145 2.088
27.1311 2.044
27.1476 2.088
27.1642 2.033
27.1807 1.863
27.1972 2.093
27.2138 1.951
27.2303 2.022
27.2469 1.978
27.2634 1.764
27.2800 2.137
27.2965 2.230
27.3131 1.923
27.3296 2.082
27.3462 1.984
27.3627 1.901
27.3792 2.000
27.3958 1.655
27.4123 1.956
27.4289 1.896
27.4454 1.901
27.4620 1.995
27.4785 1.989
27.4951 1.912
27.5116 1.797
27.5282 1.863
27.5447 1.808
27.5612 1.819
27.5778 1.633
27.5943 2.000
27.6109 1.858
27.6274 1.803
27.6440 1.929
27.6605 1.775
27.6771 1.830
27.6936 1.901
27.7102 1.841
27.7267 1.748
27.7432 1.896
27.7598 1.896
27.7763 1.879
27.7929 1.792
27.8094 1.863
27.8260 2.060
27.8425 2.005
27.8591 1.962
27.8756 1.841
27.8922 1.890
27.9087 1.737
27.9252 1.978
27.9418 1.879
27.9583 1.775
27.9749 1.863
27.9914 1.836
28.0080 1.896
28.0245 1.797
28.0411 1.759
28.0576 2.016
28.0742 1.677
28.0907 1.940
28.1072 1.786
28.1238 1.726
28.1403 1.655
28.1569 1.699
28.1734 1.945
28.1900 1.616
28.2065 1.890
28.2231 1.726
28.2396 1.660
28.2562 1.688
28.2727 1.611
28.2892 1.589
28.3058 1.589
28.3223 1.584
28.3389 1.699
28.3554 1.868
28.3720 1.753
28.3885 1.715
28.4051 1.578
28.4216 1.852
28.4382 1.605
28.4547 1.430
28.4712 1.584
28.4878 1.710
28.5043 1.573
28.5209 1.403
28.5374 1.589
28.5540 1.874
28.5705 1.551
28.5871 1.496
28.6036 1.633
28.6202 1.551
28.6367 1.885
28.6532 1.584
28.6698 1.419
28.6863 1.518
28.7029 1.660
28.7194 1.545
28.7360 1.633
28.7525 1.616
28.7691 1.633
28.7856 1.507
28.8022 1.496
28.8187 1.573
28.8352 1.710
28.8518 1.715
28.8683 1.452
28.8849 1.523
28.9014 1.496
28.9180 1.693
28.9345 1.633
28.9511 1.562
28.9676 1.414
28.9842 1.447
29.0007 1.644
29.0172 1.600
29.0338 1.447
29.0503 1.644
29.0669 1.600
29.0834 1.622
29.1000 1.551
29.1165 1.562
29.1331 1.452
29.1496 1.392
29.1662 1.458
29.1827 1.496
29.1992 1.622
29.2158 1.501
29.2323 1.430
29.2489 1.622
29.2654 1.507
29.2820 1.562
29.2985 1.540
29.3151 1.655
29.3316 1.512
29.3482 1.353
29.3647 1.419
29.3812 1.474
29.3978 1.507
29.4143 1.578
29.4309 1.447
29.4474 1.452
29.4640 1.386
29.4805 1.534
29.4971 1.430
29.5136 1.518
29.5302 1.419
29.5467 1.474
29.5632 1.474
29.5798 1.578
29.5963 1.375
29.6129 1.501
29.6294 1.463
29.6460 1.370
29.6625 1.463
29.6791 1.430
29.6956 1.551
29.7121 1.638
29.7287 1.310
29.7452 1.408
29.7618 1.458
29.7783 1.485
29.7949 1.458
29.8114 1.573
29.8280 1.644
29.8445 1.529
29.8611 1.540
29.8776 1.430
29.8941 1.452
29.9107 1.386
29.9272 1.501
29.9438 1.381
29.9603 1.458
29.9769 1.496
29.9934 1.271
30.0100 1.507
30.0265 1.244
30.0431 1.485
30.0596 1.353
30.0761 1.458
30.0927 1.523
30.1092 1.277
30.1258 1.370
30.1423 1.468
30.1589 1.425
30.1754 1.178
30.1920 1.332
30.2085 1.458
30.2251 1.392
30.2416 1.496
30.2581 1.321
30.2747 1.479
30.2912 1.507
30.3078 1.408
30.3243 1.255
30.3409 1.463
30.3574 1.189
30.3740 1.501
30.3905 1.397
30.4071 1.310
30.4236 1.233
30.4401 1.255
30.4567 1.425
30.4732 1.282
30.4898 1.288
30.5063 1.474
30.5229 1.255
30.5394 1.238
30.5560 1.282
30.5725 1.348
30.5891 1.216
30.6056 1.342
30.6221 1.403
30.6387 1.140
30.6552 1.260
30.6718 1.244
30.6883 1.556
30.7049 1.447
30.7214 1.288
30.7380 1.342
30.7545 1.337
30.7711 1.310
30.7876 1.238
30.8041 1.337
30.8207 1.299
30.8372 1.271
30.8538 1.195
30.8703 1.293
30.8869 1.381
30.9034 1.282
30.9200 1.403
30.9365 1.326
30.9531 1.178
30.9696 1.381
30.9861 1.299
31.0027 1.211
31.0192 1.244
31.0358 1.403
31.0523 1.321
31.0689 1.304
31.0854 1.205
31.1020 1.304
31.1185 1.315
31.1351 1.145
31.1516 1.266
31.1681 1.375
31.1847 1.184
31.2012 1.211
31.2178 1.277
31.2343 1.326
31.2509 1.151
31.2674 1.238
31.2840 1.123
31.3005 1.145
31.3171 1.260
31.3336 1.238
31.3501 1.238
31.3667 1.277
31.3832 1.337
31.3998 1.090
31.4163 1.249
31.4329 1.238
31.4494 1.299
31.4660 1.200
31.4825 1.211
31.4991 1.178
31.5156 1.277
31.5321 1.195
31.5487 1.332
31.5652 1.167
31.5818 1.222
31.5983 1.315
31.6149 1.359
31.6314 1.195
31.6480 1.112
31.6645 1.189
31.6811 1.315
31.6976 1.200
31.7141 1.205
31.7307 1.299
31.7472 1.195
31.7638 1.140
31.7803 1.359
31.7969 1.085
31.8134 1.079
31.8300 1.025
31.8465 1.184
31.8631 1.090
31.8796 1.200
31.8961 1.233
31.9127 1.189
31.9292 1.047
31.9458 1.162
31.9623 1.277
31.9789 1.090
31.9954 1.058
32.0120 1.255
32.0285 1.227
32.0451 1.156
32.0616 1.151
32.0781 1.189
32.0947 1.184
32.1112 1.041
32.1278 1.140
32.1443 1.205
32.1609 1.156
32.1774 1.178
32.1940 1.090
32.2105 1.107
32.2271 1.145
32.2436 1.200
32.2601 0.997
32.2767 1.145
32.2932 1.123
32.3098 1.211
32.3263 1.184
32.3429 1.052
32.3594 1.266
32.3760 1.107
32.3925 1.041
32.4091 1.101
32.4256 1.145
32.4421 1.112
32.4587 1.271
32.4752 1.107
32.4918 1.173
32.5083 1.195
32.5249 1.173
32.5414 1.079
32.5580 1.205
32.5745 1.145
32.5910 1.107
32.6076 1.129
32.6241 1.074
32.6407 0.997
32.6572 1.085
32.6738 1.178
32.6903 1.101
32.7069 1.151
32.7234 1.211
32.7400 1.052
32.7565 1.019
32.7730 1.101
32.7896 1.058
32.8061 1.052
32.8227 1.101
32.8392 1.036
32.8558 1.079
32.8723 0.975
32.8889 1.107
32.9054 1.167
32.9220 1.255
32.9385 1.112
32.9550 0.992
32.9716 1.068
32.9881 1.112
33.0047 1.140
33.0212 1.079
33.0378 1.140
33.0543 1.156
33.0709 1.025
33.0874 1.112
33.1040 1.101
33.1205 0.904
33.1370 1.008
33.1536 1.222
33.1701 1.025
33.1867 1.085
33.2032 0.964
33.2198 1.090
33.2363 0.992
33.2529 1.162
33.2694 1.156
33.2860 1.014
33.3025 1.068
33.3190 1.085
33.3356 1.107
33.3521 1.140
33.3687 1.101
33.3852 1.019
33.4018 1.162
33.4183 1.079
33.4349 1.090
33.4514 0.970
33.4680 0.986
33.4845 1.030
33.5010 1.162
33.5176 1.036
33.5341 1.058
33.5507 1.162
33.5672 1.178
33.5838 1.079
33.6003 1.184
33.6169 0.986
33.6334 0.986
33.6500 1.200
33.6665 1.238
33.6830 1.118
33.6996 1.156
33.7161 1.167
33.7327 1.079
33.7492 1.156
33.7658 1.151
33.7823 1.222
33.7989 1.041
33.8154 1.162
33.8320 1.200
33.8485 1.134
33.8650 1.238
33.8816 1.293
33.8981 1.310
33.9147 1.304
33.9312 1.233
33.9478 1.463
33.9643 1.304
33.9809 1.184
33.9974 1.332
34.0140 1.277
34.0305 1.364
34.0470 1.227
34.0636 1.195
34.0801 1.348
34.0967 1.211
34.1132 1.277
34.1298 1.238
34.1463 1.200
34.1629 1.195
34.1794 1.364
34.1960 1.359
34.2125 1.178
34.2290 1.342
34.2456 1.288
34.2621 1.277
34.2787 1.403
34.2952 1.332
34.3118 1.403
34.3283 1.436
34.3449 1.211
34.3614 1.463
34.3780 1.359
34.3945 1.211
34.4110 1.364
34.4276 1.430
34.4441 1.447
34.4607 1.304
34.4772 1.397
34.4938 1.430
34.5103 1.485
34.5269 1.425
34.5434 1.430
34.5600 1.479
34.5765 1.584
34.5930 1.540
34.6096 1.677
34.6261 1.671
34.6427 1.611
34.6592 1.841
34.6758 1.918
34.6923 2.230
34.7089 2.121
34.7254 2.153
34.7420 2.208
34.7585 2.674
34.7750 2.866
34.7916 2.948
34.8081 3.112
34.8247 3.518
34.8412 3.890
34.8578 4.532
34.8743 5.085
34.8909 5.786
34.9074 6.641
34.9240 7.858
34.9405 8.592
34.9570 10.707
34.9736 12.362
34.9901 15.101
35.0067 19.255
35.0232 23.545
35.0398 29.753
35.0563 36.000
35.0729 43.019
35.0894 48.318
35.1060 49.830
35.1225 45.529
35.1390 40.088
35.1556 34.510
35.1721 31.485
35.1887 28.449
35.2052 23.962
35.2218 19.321
35.2383 14.148
35.2549 9.775
35.2714 7.359
35.2879 5.079
35.3045 4.312
35.3210 3.704
35.3376 3.211
35.3541 2.888
35.3707 2.570
35.3872 2.510
35.4038 2.181
35.4203 2.005
35.4369 1.967
35.4534 1.912
35.4699 1.868
35.4865 1.660
35.5030 1.682
35.5196 1.589
35.5361 1.512
35.5527 1.660
35.5692 1.605
35.5858 1.419
35.6023 1.364
35.6189 1.397
35.6354 1.436
35.6519 1.518
35.6685 1.441
35.6850 1.353
35.7016 1.304
35.7181 1.178
35.7347 1.107
35.7512 1.436
35.7678 1.337
35.7843 1.233
35.8009 1.359
35.8174 1.260
35.8339 1.266
35.8505 1.222
35.8670 1.189
35.8836 1.189
35.9001 1.304
35.9167 1.227
35.9332 1.205
35.9498 1.282
35.9663 1.162
35.9829 1.101
35.9994 1.090
36.0159 1.085
36.0325 1.003
36.0490 1.227
36.0656 1.184
36.0821 1.085
36.0987 1.085
36.1152 1.058
36.1318 1.030
36.1483 1.140
36.1649 1.036
36.1814 1.030
36.1979 1.145
36.2145 1.101
36.2310 1.101
36.2476 1.101
36.2641 1.025
36.2807 1.090
36.2972 1.178
36.3138 1.008
36.3303 1.047
36.3469 1.205
36.3634 1.134
36.3799 1.162
36.3965 1.079
36.4130 1.019
36.4296 1.134
36.4461 1.151
36.4627 1.123
36.4792 1.058
36.4958 1.211
36.5123 1.019
36.5289 1.205
36.5454 1.025
36.5619 1.184
36.5785 1.090
36.5950 0.964
36.6116 1.123
36.6281 1.003
36.6447 1.178
36.6612 1.167
36.6778 1.173
36.6943 1.156
36.7109 1.063
36.7274 1.134
36.7439 1.244
36.7605 1.151
36.7770 1.123
36.7936 0.975
36.8101 1.123
36.8267 0.981
36.8432 1.189
36.8598 1.167
36.8763 1.173
36.8929 1.096
36.9094 1.222
36.9259 1.101
36.9425 1.134
36.9590 1.096
36.9756 1.167
36.9921 1.255
37.0087 1.129
37.0252 1.151
37.0418 1.299
37.0583 1.151
37.0749 1.145
37.0914 1.205
37.1079 1.112
37.1245 1.244
37.1410 1.200
37.1576 1.244
37.1741 1.107
37.1907 1.244
37.2072 1.277
37.2238 1.205
37.2403 1.189
37.2569 1.134
37.2734 1.233
37.2899 1.337
37.3065 1.353
37.3230 1.090
37.3396 1.474
37.3561 1.534
37.3727 1.556
37.3892 1.540
37.4058 1.759
37.4223 1.923
37.4389 2.066
37.4554 2.077
37.4719 2.614
37.4885 2.444
37.5050 2.811
37.5216 3.123
37.5381 3.332
37.5547 3.847
37.5712 4.515
37.5878 5.156
37.6043 6.384
37.6209 7.288
37.6374 8.773
37.6539 10.915
37.6705 12.948
37.6870 15.414
37.7036 18.334
37.7201 19.890
37.7367 19.222
37.7532 16.942
37.7698 15.184
37.7863 13.814
37.8029 12.219
37.8194 11.074
37.8359 10.153
37.8525 8.175
37.8690 6.400
37.8856 4.690
37.9021 3.337
37.9187 2.860
37.9352 2.416
37.9518 2.093
37.9683 1.830
37.9848 1.732
38.0014 1.425
38.0179 1.605
38.0345 1.337
38.0510 1.441
38.0676 1.277
38.0841 1.173
38.1007 1.364
38.1172 1.260
38.1338 1.167
38.1503 1.085
38.1668 1.090
38.1834 1.238
38.1999 1.019
38.2165 1.216
38.2330 1.063
38.2496 1.227
38.2661 1.134
38.2827 1.047
38.2992 1.085
38.3158 1.090
38.3323 1.019
38.3488 0.981
38.3654 1.123
38.3819 1.063
38.3985 0.992
38.4150 1.008
38.4316 0.970
38.4481 1.085
38.4647 0.921
38.4812 1.041
38.4978 0.970
38.5143 1.299
38.5308 1.096
38.5474 0.981
38.5639 1.036
38.5805 0.948
38.5970 1.003
38.6136 0.877
38.6301 0.981
38.6467 1.030
38.6632 0.860
38.6798 0.964
38.6963 1.090
38.7128 0.992
38.7294 0.942
38.7459 0.882
38.7625 0.866
38.7790 0.921
38.7956 1.041
38.8121 0.932
38.8287 1.052
38.8452 0.942
38.8618 1.036
38.8783 0.893
38.8948 0.921
38.9114 0.959
38.9279 0.910
38.9445 1.074
38.9610 1.123
38.9776 1.063
38.9941 1.014
39.0107 0.833
39.0272 0.921
39.0438 0.838
39.0603 0.921
39.0768 0.997
39.0934 0.959
39.1099 0.910
39.1265 0.855
39.1430 0.904
39.1596 0.833
39.1761 0.833
39.1927 0.762
39.2092 0.921
39.2258 1.008
39.2423 0.948
39.2588 0.778
39.2754 0.888
39.2919 0.844
39.3085 0.915
39.3250 0.816
39.3416 0.970
39.3581 0.882
39.3747 0.784
39.3912 0.959
39.4078 0.921
39.4243 0.899
39.4408 0.899
39.4574 0.893
39.4739 0.921
39.4905 0.942
39.5070 0.899
39.5236 0.899
39.5401 0.948
39.5567 0.937
39.5732 0.915
39.5898 0.773
39.6063 0.773
39.6228 0.877
39.6394 1.014
39.6559 0.888
39.6725 0.866
39.6890 0.893
39.7056 0.827
39.7221 0.816
39.7387 0.773
39.7552 0.718
39.7718 0.855
39.7883 0.921
39.8048 0.784
39.8214 0.855
39.8379 0.805
39.8545 0.811
39.8710 0.877
39.8876 0.800
39.9041 0.745
39.9207 0.899
39.9372 0.899
39.9538 0.877
39.9703 0.827
39.9868 1.003
40.0034 0.904
40.0199 0.805
40.0365 0.877
40.0530 0.778
40.0696 0.734
40.0861 0.816
40.1027 0.833
40.1192 0.745
40.1358 0.904
40.1523 0.866
40.1688 0.899
40.1854 0.816
40.2019 0.767
40.2185 0.767
40.2350 0.822
40.2516 0.833
40.2681 0.751
40.2847 0.734
40.3012 0.723
40.3178 0.866
40.3343 0.816
40.3508 0.740
40.3674 0.751
40.3839 0.849
40.4005 0.784
40.4170 0.740
40.4336 0.800
40.4501 0.855
40.4667 0.773
40.4832 0.953
40.4998 0.827
40.5163 0.893
40.5328 0.899
40.5494 0.981
40.5659 0.953
40.5825 0.778
40.5990 0.964
40.6156 0.756
40.6321 0.773
40.6487 0.882
40.6652 0.751
40.6818 0.844
40.6983 0.904
40.7148 0.822
40.7314 0.860
40.7479 0.904
40.7645 0.701
40.7810 0.811
40.7976 0.838
40.8141 0.838
40.8307 0.762
40.8472 0.844
40.8637 0.899
40.8803 0.816
40.8968 0.827
40.9134 0.860
40.9299 0.795
40.9465 0.800
40.9630 0.844
40.9796 0.899
40.9961 0.866
41.0127 0.811
41.0292 0.784
41.0457 0.751
41.0623 0.827
41.0788 0.937
41.0954 0.795
41.1119 0.855
41.1285 0.871
41.1450 0.899
41.1616 0.932
41.1781 0.849
41.1947 0.767
41.2112 0.910
41.2277 0.866
41.2443 0.942
41.2608 0.811
41.2774 0.866
41.2939 0.795
41.3105 0.882
41.3270 0.762
41.3436 0.816
41.3601 0.833
41.3767 0.822
41.3932 0.888
41.4097 0.877
41.4263 0.877
41.4428 0.964
41.4594 0.882
41.4759 0.975
41.4925 0.937
41.5090 0.910
41.5256 1.052
41.5421 1.123
41.5587 1.189
41.5752 1.058
41.5917 1.282
41.6083 1.178
41.6248 1.244
41.6414 1.222
41.6579 1.101
41.6745 1.090
41.6910 1.162
41.7076 1.271
41.7241 1.036
41.7407 1.079
41.7572 0.981
41.7737 1.096
41.7903 1.085
41.8068 1.074
41.8234 1.041
41.8399 0.888
41.8565 1.003
41.8730 1.063
41.8896 0.992
41.9061 0.942
41.9227 0.899
41.9392 1.036
41.9557 1.008
41.9723 0.904
41.9888 1.090
42.0054 0.904
42.0219 1.003
42.0385 0.970
42.0550 1.063
42.0716 0.942
42.0881 0.942
42.1047 0.915
42.1212 0.904
42.1377 1.068
42.1543 1.068
42.1708 1.041
42.1874 1.036
42.2039 0.964
42.2205 0.992
42.2370 0.986
42.2536 1.014
42.2701 1.074
42.2867 1.036
42.3032 1.014
42.3197 0.997
42.3363 0.904
42.3528 1.058
42.3694 1.041
42.3859 1.041
42.4025 1.047
42.4190 1.063
42.4356 1.052
42.4521 1.101
42.4687 0.997
42.4852 1.151
42.5017 1.123
42.5183 0.997
42.5348 1.123
42.5514 1.216
42.5679 1.129
42.5845 1.178
42.6010 1.238
42.6176 1.151
42.6341 1.216
42.6507 1.129
42.6672 1.134
42.6837 1.156
42.7003 1.189
42.7168 1.255
42.7334 1.419
42.7499 1.441
42.7665 1.403
42.7830 1.474
42.7996 1.551
42.8161 1.386
42.8327 1.468
42.8492 1.693
42.8657 1.830
42.8823 1.825
42.8988 1.907
42.9154 2.016
42.9319 2.416
42.9485 2.592
42.9650 2.805
42.9816 3.145
42.9981 3.337
43.0147 3.951
43.0312 4.312
43.0477 5.074
43.0643 5.523
43.0808 6.077
43.0974 7.512
43.1139 8.312
43.1305 10.060
43.1470 11.973
43.1636 13.786
43.1801 17.178
43.1967 20.159
43.2132 24.548
43.2297 28.811
43.2463 35.819
43.2628 42.027
43.2794 47.512
43.2959 47.890
43.3125 45.342
43.3290 40.137
43.3456 33.025
43.3621 28.586
43.3787 28.099
43.3952 27.353
43.4117 25.145
43.4283 21.058
43.4448 16.827
43.4614 12.268
43.4779 8.175
43.4945 6.208
43.5110 4.548
43.5276 4.005
43.5441 3.227
43.5606 2.816
43.5772 2.641
43.5937 2.258
43.6103 2.214
43.6268 2.005
43.6434 1.693
43.6599 1.726
43.6765 1.578
43.6930 1.468
43.7096 1.490
43.7261 1.397
43.7426 1.227
43.7592 1.364
43.7757 1.244
43.7923 1.260
43.8088 1.216
43.8254 1.205
43.8419 1.364
43.8585 1.266
43.8750 0.948
43.8916 1.058
43.9081 1.079
43.9246 0.964
43.9412 1.030
43.9577 1.205
43.9743 1.036
43.9908 1.129
44.0074 1.030
44.0239 0.970
44.0405 1.052
44.0570 1.019
44.0736 0.871
44.0901 1.014
44.1066 0.844
44.1232 0.844
44.1397 0.926
44.1563 0.942
44.1728 0.915
44.1894 0.855
44.2059 0.926
44.2225 0.937
44.2390 1.014
44.2556 0.910
44.2721 0.899
44.2886 0.805
44.3052 0.789
44.3217 0.953
44.3383 0.833
44.3548 0.910
44.3714 0.871
44.3879 0.849
44.4045 0.877
44.4210 0.882
44.4376 0.888
44.4541 0.745
44.4706 0.871
44.4872 0.910
44.5037 0.838
44.5203 0.893
44.5368 0.953
44.5534 0.734
44.5699 0.849
44.5865 0.800
44.6030 0.822
44.6196 0.932
44.6361 0.778
44.6526 0.811
44.6692 0.926
44.6857 0.811
44.7023 0.866
44.7188 0.970
44.7354 0.849
44.7519 0.816
44.7685 0.784
44.7850 0.838
44.8016 0.784
44.8181 0.877
44.8346 0.778
44.8512 0.860
44.8677 0.773
44.8843 0.959
44.9008 0.953
44.9174 0.778
44.9339 0.811
44.9505 0.948
44.9670 0.740
44.9836 0.860
45.0001 0.707
45.0166 0.767
45.0332 0.805
45.0497 0.784
45.0663 0.674
45.0828 0.926
45.0994 0.805
45.1159 0.740
45.1325 0.756
45.1490 0.674
45.1656 0.767
45.1821 0.679
45.1986 0.866
45.2152 0.778
45.2317 0.844
45.2483 0.734
45.2648 0.871
45.2814 0.729
45.2979 0.833
45.3145 0.740
45.3310 0.756
45.3476 0.795
45.3641 0.795
45.3806 0.773
45.3972 0.712
45.4137 0.838
45.4303 0.723
45.4468 0.882
45.4634 0.773
45.4799 0.784
45.4965 0.795
45.5130 0.778
45.5296 0.844
45.5461 0.805
45.5626 0.860
45.5792 0.636
45.5957 0.636
45.6123 0.833
45.6288 0.877
45.6454 0.630
45.6619 0.833
45.6785 0.740
45.6950 0.866
45.7116 0.718
45.7281 0.745
45.7446 0.789
45.7612 0.652
45.7777 0.756
45.7943 0.762
45.8108 0.948
45.8274 0.789
45.8439 0.784
45.8605 0.860
45.8770 0.904
45.8936 0.718
45.9101 0.729
45.9266 0.800
45.9432 0.877
45.9597 0.833
45.9763 0.904
45.9928 0.855
46.0094 0.948
46.0259 0.981
46.0425 1.074
46.0590 1.068
46.0756 1.041
46.0921 1.184
46.1086 1.397
46.1252 1.293
46.1417 1.348
46.1583 1.129
46.1748 0.992
46.1914 0.981
46.2079 0.953
46.2245 1.036
46.2410 0.910
46.2575 0.904
46.2741 0.789
46.2906 0.822
46.3072 0.723
46.3237 0.827
46.3403 0.701
46.3568 0.685
46.3734 0.773
46.3899 0.893
46.4065 0.663
46.4230 0.800
46.4395 0.767
46.4561 0.723
46.4726 0.679
46.4892 0.712
46.5057 0.630
46.5223 0.751
46.5388 0.751
46.5554 0.658
46.5719 0.641
46.5885 0.756
46.6050 0.696
46.6215 0.745
46.6381 0.740
46.6546 0.647
46.6712 0.625
46.6877 0.723
46.7043 0.679
46.7208 0.734
46.7374 0.685
46.7539 0.718
46.7705 0.816
46.7870 0.652
46.8035 0.745
46.8201 0.652
46.8366 0.723
46.8532 0.658
46.8697 0.668
46.8863 0.707
46.9028 0.729
46.9194 0.597
46.9359 0.586
46.9525 0.652
46.9690 0.751
46.9855 0.701
47.0021 0.663
47.0186 0.647
47.0352 0.701
47.0517 0.734
47.0683 0.740
47.0848 0.800
47.1014 0.701
47.1179 0.707
47.1345 0.827
47.1510 0.663
47.1675 0.603
47.1841 0.740
47.2006 0.663
47.2172 0.625
47.2337 0.636
47.2503 0.630
47.2668 0.668
47.2834 0.756
47.2999 0.630
47.3165 0.762
47.3330 0.597
47.3495 0.636
47.3661 0.712
47.3826 0.696
47.3992 0.663
47.4157 0.778
47.4323 0.663
47.4488 0.636
47.4654 0.690
47.4819 0.674
47.4985 0.690
47.5150 0.641
47.5315 0.685
47.5481 0.575
47.5646 0.805
47.5812 0.745
47.5977 0.647
47.6143 0.668
47.6308 0.701
47.6474 0.696
47.6639 0.581
47.6805 0.712
47.6970 0.696
47.7135 0.641
47.7301 0.630
47.7466 0.740
47.7632 0.575
47.7797 0.723
47.7963 0.619
47.8128 0.718
47.8294 0.718
47.8459 0.537
47.8625 0.679
47.8790 0.805
47.8955 0.685
47.9121 0.641
47.9286 0.718
47.9452 0.614
47.9617 0.723
47.9783 0.663
47.9948 0.603
48.0114 0.575
48.0279 0.614
48.0445 0.663
48.0610 0.647
48.0775 0.674
48.0941 0.521
48.1106 0.636
48.1272 0.658
48.1437 0.647
48.1603 0.674
48.1768 0.630
48.1934 0.586
48.2099 0.805
48.2265 0.679
48.2430 0.630
48.2595 0.581
48.2761 0.658
48.2926 0.647
48.3092 0.647
48.3257 0.658
48.3423 0.581
48.3588 0.548
48.3754 0.658
48.3919 0.586
48.4085 0.658
48.4250 0.674
48.4415 0.701
48.4581 0.734
48.4746 0.685
48.4912 0.570
48.5077 0.762
48.5243 0.712
48.5408 0.663
48.5574 0.586
48.5739 0.575
48.5905 0.734
48.6070 0.647
48.6235 0.647
48.6401 0.586
48.6566 0.625
48.6732 0.647
48.6897 0.658
48.7063 0.564
48.7228 0.581
48.7394 0.564
48.7559 0.630
48.7725 0.515
48.7890 0.701
48.8055 0.542
48.8221 0.592
48.8386 0.625
48.8552 0.603
48.8717 0.504
48.8883 0.559
48.9048 0.581
48.9214 0.542
48.9379 0.553
48.9545 0.630
48.9710 0.668
48.9875 0.608
49.0041 0.537
49.0206 0.581
49.0372 0.586
49.0537 0.608
49.0703 0.586
49.0868 0.597
49.1034 0.663
49.1199 0.619
49.1364 0.493
49.1530 0.630
49.1695 0.521
49.1861 0.712
49.2026 0.625
49.2192 0.570
49.2357 0.630
49.2523 0.521
49.2688 0.608
49.2854 0.679
49.3019 0.619
49.3184 0.668
49.3350 0.729
49.3515 0.586
49.3681 0.581
49.3846 0.636
49.4012 0.537
49.4177 0.532
49.4343 0.542
49.4508 0.586
49.4674 0.658
49.4839 0.548
49.5004 0.559
49.5170 0.548
49.5335 0.575
49.5501 0.751
49.5666 0.575
49.5832 0.581
49.5997 0.608
49.6163 0.532
49.6328 0.455
49.6494 0.619
49.6659 0.652
49.6824 0.668
49.6990 0.586
49.7155 0.504
49.7321 0.619
49.7486 0.636
49.7652 0.652
49.7817 0.668
49.7983 0.625
49.8148 0.674
49.8314 0.658
49.8479 0.542
49.8644 0.542
49.8810 0.625
49.8975 0.619
49.9141 0.740
49.9306 0.532
49.9472 0.641
49.9637 0.510
49.9803 0.608
49.9968 0.674
50.0134 0.608
50.0299 0.690
50.0464 0.608
50.0630 0.444
50.0795 0.510
50.0961 0.608
50.1126 0.625
50.1292 0.548
50.1457 0.641
50.1623 0.477
50.1788 0.663
50.1954 0.499
50.2119 0.630
50.2284 0.685
50.2450 0.608
50.2615 0.690
50.2781 0.592
50.2946 0.674
50.3112 0.663
50.3277 0.592
50.3443 0.603
50.3608 0.668
50.3774 0.608
50.3939 0.701
50.4104 0.630
50.4270 0.597
50.4435 0.685
50.4601 0.532
50.4766 0.542
50.4932 0.608
50.5097 0.630
50.5263 0.619
50.5428 0.658
50.5594 0.559
50.5759 0.641
50.5924 0.674
50.6090 0.701
50.6255 0.696
50.6421 0.707
50.6586 0.663
50.6752 0.597
50.6917 0.625
50.7083 0.652
50.7248 0.647
50.7414 0.570
50.7579 0.597
50.7744 0.696
50.7910 0.603
50.8075 0.712
50.8241 0.674
50.8406 0.608
50.8572 0.696
50.8737 0.647
50.8903 0.690
50.9068 0.679
50.9234 0.674
50.9399 0.636
50.9564 0.542
50.9730 0.679
50.9895 0.805
51.0061 0.696
51.0226 0.614
51.0392 0.575
51.0557 0.586
51.0723 0.718
51.0888 0.778
51.1054 0.647
51.1219 0.652
51.1384 0.679
51.1550 0.701
51.1715 0.690
51.1881 0.619
51.2046 0.532
51.2212 0.734
51.2377 0.559
51.2543 0.641
51.2708 0.592
51.2874 0.723
51.3039 0.553
51.3204 0.685
51.3370 0.647
51.3535 0.795
51.3701 0.805
51.3866 0.701
51.4032 0.679
51.4197 0.745
51.4363 0.822
51.4528 0.636
51.4694 0.822
51.4859 0.663
51.5024 0.773
51.5190 0.756
51.5355 0.773
51.5521 0.663
51.5686 0.668
51.5852 0.844
51.6017 0.658
51.6183 0.641
51.6348 0.707
51.6514 0.641
51.6679 0.690
51.6844 0.734
51.7010 0.718
51.7175 0.707
51.7341 0.718
51.7506 0.789
51.7672 0.740
51.7837 0.745
51.8003 0.866
51.8168 0.811
51.8333 0.734
51.8499 0.679
51.8664 0.778
51.8830 0.866
51.8995 0.641
51.9161 0.899
51.9326 0.964
51.9492 0.932
51.9657 0.937
51.9823 1.129
51.9988 0.942
52.0153 0.921
52.0319 1.090
52.0484 1.145
52.0650 1.200
52.0815 1.244
52.0981 1.299
52.1146 1.436
52.1312 1.633
52.1477 1.699
52.1643 2.011
52.1808 2.044
52.1973 2.312
52.2139 2.608
52.2304 2.975
52.2470 3.085
52.2635 3.545
52.2801 4.082
52.2966 4.416
52.3132 5.260
52.3297 5.677
52.3463 6.827
52.3628 8.203
52.3793 10.016
52.3959 11.792
52.4124 13.836
52.4290 16.110
52.4455 17.929
52.4621 20.055
52.4786 20.416
52.4952 19.101
52.5117 15.797
52.5283 13.271
52.5448 11.271
52.5613 11.090
52.5779 10.630
52.5944 11.090
52.6110 10.910
52.6275 9.660
52.6441 8.159
52.6606 6.433
52.6772 4.773
52.6937 3.441
52.7103 2.981
52.7268 2.066
52.7433 1.874
52.7599 1.786
52.7764 1.436
52.7930 1.430
52.8095 1.441
52.8261 1.184
52.8426 1.173
52.8592 1.129
52.8757 0.986
52.8923 0.926
52.9088 0.953
52.9253 0.926
52.9419 0.921
52.9584 0.860
52.9750 0.888
52.9915 0.707
53.0081 0.756
53.0246 0.778
53.0412 0.740
53.0577 0.899
53.0743 0.784
53.0908 0.729
53.1073 0.784
53.1239 0.729
53.1404 0.723
53.1570 0.690
53.1735 0.789
53.1901 0.751
53.2066 0.647
53.2232 0.718
53.2397 0.685
53.2563 0.608
53.2728 0.734
53.2893 0.762
53.3059 0.718
53.3224 0.679
53.3390 0.603
53.3555 0.718
53.3721 0.542
53.3886 0.795
53.4052 0.685
53.4217 0.663
53.4383 0.630
53.4548 0.668
53.4713 0.756
53.4879 0.630
53.5044 0.619
53.5210 0.575
53.5375 0.729
53.5541 0.586
53.5706 0.679
53.5872 0.663
53.6037 0.493
53.6203 0.685
53.6368 0.619
53.6533 0.603
53.6699 0.575
53.6864 0.636
53.7030 0.696
53.7195 0.603
53.7361 0.630
53.7526 0.570
53.7692 0.718
53.7857 0.548
53.8023 0.658
53.8188 0.586
53.8353 0.658
53.8519 0.619
53.8684 0.608
53.8850 0.570
53.9015 0.548
53.9181 0.575
53.9346 0.712
53.9512 0.647
53.9677 0.553
53.9843 0.690
54.0008 0.652
54.0173 0.570
54.0339 0.570
54.0504 0.614
54.0670 0.608
54.0835 0.608
54.1001 0.586
54.1166 0.542
54.1332 0.564
54.1497 0.603
54.1663 0.548
54.1828 0.614
54.1993 0.625
54.2159 0.630
54.2324 0.619
54.2490 0.521
54.2655 0.597
54.2821 0.570
54.2986 0.548
54.3152 0.652
54.3317 0.619
54.3483 0.559
54.3648 0.614
54.3813 0.515
54.3979 0.532
54.4144 0.685
54.4310 0.619
54.4475 0.482
54.4641 0.542
54.4806 0.658
54.4972 0.553
54.5137 0.575
54.5302 0.707
54.5468 0.477
54.5633 0.526
54.5799 0.603
54.5964 0.537
54.6130 0.619
54.6295 0.625
54.6461 0.592
54.6626 0.559
54.6792 0.499
54.6957 0.614
54.7122 0.564
54.7288 0.597
54.7453 0.542
54.7619 0.444
54.7784 0.548
54.7950 0.526
54.8115 0.581
54.8281 0.553
54.8446 0.471
54.8612 0.493
54.8777 0.499
54.8942 0.581
54.9108 0.510
54.9273 0.548
54.9439 0.548
54.9604 0.586
54.9770 0.592
54.9935 0.510
55.0101 0.592
55.0266 0.614
55.0432 0.575
55.0597 0.564
55.0762 0.636
55.0928 0.636
55.1093 0.444
55.1259 0.630
55.1424 0.542
55.1590 0.575
55.1755 0.679
55.1921 0.614
55.2086 0.701
55.2252 0.575
55.2417 0.668
55.2582 0.795
55.2748 0.696
55.2913 0.767
55.3079 0.636
55.3244 0.581
55.3410 0.729
55.3575 0.559
55.3741 0.559
55.3906 0.751
55.4072 0.564
55.4237 0.696
55.4402 0.679
55.4568 0.690
55.4733 0.740
55.4899 0.679
55.5064 0.575
55.5230 0.729
55.5395 0.625
55.5561 0.718
55.5726 0.647
55.5892 0.647
55.6057 0.586
55.6222 0.559
55.6388 0.718
55.6553 0.570
55.6719 0.668
55.6884 0.652
55.7050 0.745
55.7215 0.712
55.7381 0.658
55.7546 0.614
55.7712 0.652
55.7877 0.751
55.8042 0.630
55.8208 0.729
55.8373 0.641
55.8539 0.674
55.8704 0.690
55.8870 0.718
55.9035 0.592
55.9201 0.690
55.9366 0.559
55.9532 0.652
55.9697 0.740
55.9862 0.608
56.0028 0.800
56.0193 0.723
56.0359 0.805
56.0524 0.603
56.0690 0.619
56.0855 0.718
56.1021 0.767
56.1186 0.696
56.1352 0.745
56.1517 0.773
56.1682 0.690
56.1848 0.597
56.2013 0.636
56.2179 0.740
56.2344 0.647
56.2510 0.712
56.2675 0.723
56.2841 0.729
56.3006 0.778
56.3172 0.734
56.3337 0.734
56.3502 0.778
56.3668 0.658
56.3833 0.701
56.3999 0.762
56.4164 0.636
56.4330 0.756
56.4495 0.756
56.4661 0.701
56.4826 0.740
56.4992 0.740
56.5157 0.773
56.5322 0.778
56.5488 0.795
56.5653 0.805
56.5819 0.745
56.5984 0.981
56.6150 0.778
56.6315 0.800
56.6481 0.833
56.6646 0.800
56.6812 0.773
56.6977 0.871
56.7142 0.860
56.7308 0.811
56.7473 0.942
56.7639 0.849
56.7804 0.942
56.7970 0.970
56.8135 0.937
56.8301 1.019
56.8466 1.014
56.8632 1.184
56.8797 1.129
56.8962 1.310
56.9128 1.299
56.9293 1.425
56.9459 1.441
56.9624 1.414
56.9790 1.753
56.9955 1.836
57.0121 1.858
57.0286 2.290
57.0452 2.219
57.0617 2.625
57.0782 2.992
57.0948 3.189
57.1113 3.677
57.1279 3.973
57.1444 4.537
57.1610 4.729
57.1775 5.775
57.1941 6.279
57.2106 7.052
57.2272 8.049
57.2437 9.660
57.2602 11.030
57.2768 13.134
57.2933 15.364
57.3099 18.066
57.3264 21.014
57.3430 25.699
57.3595 30.121
57.3761 34.756
57.3926 37.737
57.4091 39.490
57.4257 37.786
57.4422 32.964
57.4588 27.901
57.4753 22.301
57.4919 19.759
57.5084 18.712
57.5250 19.978
57.5415 20.384
57.5581 21.025
57.5746 19.293
57.5911 16.499
57.6077 13.562
57.6242 9.868
57.6408 7.359
57.6573 5.436
57.6739 4.400
57.6904 3.474
57.7070 3.008
57.7235 2.811
57.7401 2.356
57.7566 1.901
57.7731 1.792
57.7897 1.748
57.8062 1.573
57.8228 1.326
57.8393 1.381
57.8559 1.332
57.8724 1.238
57.8890 1.304
57.9055 1.101
57.9221 1.145
57.9386 0.893
57.9551 1.074
57.9717 0.953
57.9882 1.030
58.0048 0.838
58.0213 0.937
58.0379 1.014
58.0544 0.838
58.0710 0.932
58.0875 0.921
58.1041 0.827
58.1206 0.822
58.1371 0.822
58.1537 0.838
58.1702 0.915
58.1868 0.751
58.2033 0.778
58.2199 0.805
58.2364 0.822
58.2530 0.762
58.2695 0.701
58.2861 0.762
58.3026 0.904
58.3191 0.745
58.3357 0.652
58.3522 0.756
58.3688 0.805
58.3853 0.745
58.4019 0.756
58.4184 0.652
58.4350 0.811
58.4515 0.762
58.4681 0.745
58.4846 0.663
58.5011 0.658
58.5177 0.718
58.5342 0.586
58.5508 0.575
58.5673 0.586
58.5839 0.630
58.6004 0.630
58.6170 0.581
58.6335 0.619
58.6501 0.658
58.6666 0.636
58.6831 0.619
58.6997 0.756
58.7162 0.668
58.7328 0.575
58.7493 0.658
58.7659 0.636
58.7824 0.597
58.7990 0.537
58.8155 0.603
58.8321 0.581
58.8486 0.581
58.8651 0.608
58.8817 0.542
58.8982 0.597
58.9148 0.570
58.9313 0.647
58.9479 0.570
58.9644 0.712
58.9810 0.608
58.9975 0.625
59.0141 0.647
59.0306 0.701
59.0471 0.619
59.0637 0.658
59.0802 0.685
59.0968 0.718
59.1133 0.625
59.1299 0.575
59.1464 0.592
59.1630 0.647
59.1795 0.679
59.1961 0.586
59.2126 0.701
59.2291 0.679
59.2457 0.608
59.2622 0.707
59.2788 0.773
59.2953 0.559
59.3119 0.625
59.3284 0.690
59.3450 0.614
59.3615 0.734
59.3781 0.608
59.3946 0.685
59.4111 0.701
59.4277 0.690
59.4442 0.630
59.4608 0.833
59.4773 0.745
59.4939 0.778
59.5104 0.795
59.5270 0.866
59.5435 0.970
59.5601 1.025
59.5766 1.030
59.5931 1.249
59.6097 1.288
59.6262 1.392
59.6428 1.545
59.6593 1.518
59.6759 1.403
59.6924 1.342
59.7090 1.211
59.7255 1.041
59.7421 0.948
59.7586 0.959
59.7751 1.134
59.7917 1.112
59.8082 1.112
59.8248 0.948
59.8413 0.904
59.8579 0.888
59.8744 0.773
59.8910 0.767
59.9075 0.712
59.9241 0.734
59.9406 0.636
59.9571 0.548
59.9737 0.718
59.9902 0.570
60.0068 0.548
60.0233 0.570
60.0399 0.658
60.0564 0.668
60.0730 0.619
60.0895 0.608
60.1060 0.619
60.1226 0.636
60.1391 0.504
60.1557 0.553
60.1722 0.581
60.1888 0.548
60.2053 0.641
60.2219 0.581
60.2384 0.592
60.2550 0.592
60.2715 0.575
60.2880 0.471
60.3046 0.575
60.3211 0.499
60.3377 0.581
60.3542 0.532
60.3708 0.564
60.3873 0.575
60.4039 0.614
60.4204 0.537
60.4370 0.482
60.4535 0.614
60.4700 0.559
60.4866 0.674
60.5031 0.619
60.5197 0.658
60.5362 0.674
60.5528 0.619
60.5693 0.652
60.5859 0.636
60.6024 0.586
60.6190 0.559
60.6355 0.575
60.6520 0.515
60.6686 0.652
60.6851 0.663
60.7017 0.701
60.7182 0.745
60.7348 0.679
60.7513 0.778
60.7679 0.729
60.7844 0.701
60.8010 0.899
60.8175 0.926
60.8340 0.767
60.8506 1.123
60.8671 0.986
60.8837 1.008
60.9002 1.200
60.9168 1.238
60.9333 1.178
60.9499 1.622
60.9664 1.573
60.9830 1.825
60.9995 1.973
61.0160 1.967
61.0326 2.230
61.0491 2.219
61.0657 2.438
61.0822 2.362
61.0988 2.362
61.1153 2.767
61.1319 2.696
61.1484 3.184
61.1650 3.342
61.1815 3.874
61.1980 4.115
61.2146 3.858
61.2311 3.551
61.2477 3.260
61.2642 2.449
61.2808 2.181
61.2973 1.995
61.3139 1.858
61.3304 1.934
61.3470 2.307
61.3635 2.225
61.3800 1.896
61.3966 1.836
61.4131 1.458
61.4297 1.288
61.4462 1.003
61.4628 0.838
61.4793 0.822
61.4959 0.767
61.5124 0.712
61.5290 0.679
61.5455 0.685
61.5620 0.614
61.5786 0.701
61.5951 0.559
61.6117 0.614
61.6282 0.603
61.6448 0.488
61.6613 0.526
61.6779 0.488
61.6944 0.575
61.7110 0.510
61.7275 0.592
61.7440 0.586
61.7606 0.564
61.7771 0.597
61.7937 0.586
61.8102 0.619
61.8268 0.526
61.8433 0.444
61.8599 0.553
61.8764 0.510
61.8930 0.515
61.9095 0.559
61.9260 0.499
61.9426 0.510
61.9591 0.444
61.9757 0.515
61.9922 0.433
62.0088 0.499
62.0253 0.477
62.0419 0.504
62.0584 0.570
62.0750 0.471
62.0915 0.460
62.1080 0.466
62.1246 0.586
62.1411 0.449
62.1577 0.488
62.1742 0.460
62.1908 0.559
62.2073 0.570
62.2239 0.542
62.2404 0.515
62.2570 0.515
62.2735 0.482
62.2900 0.532
62.3066 0.449
62.3231 0.455
62.3397 0.559
62.3562 0.510
62.3728 0.553
62.3893 0.504
62.4059 0.542
62.4224 0.488
62.4390 0.411
62.4555 0.537
62.4720 0.438
62.4886 0.532
62.5051 0.444
62.5217 0.515
62.5382 0.389
62.5548 0.559
62.5713 0.499
62.5879 0.471
62.6044 0.422
62.6210 0.455
62.6375 0.493
62.6540 0.444
62.6706 0.510
62.6871 0.460
62.7037 0.575
62.7202 0.493
62.7368 0.488
62.7533 0.515
62.7699 0.471
62.7864 0.455
62.8029 0.438
62.8195 0.499
62.8360 0.438
62.8526 0.515
62.8691 0.625
62.8857 0.532
62.9022 0.564
62.9188 0.499
62.9353 0.449
62.9519 0.499
62.9684 0.564
62.9849 0.548
63.0015 0.499
63.0180 0.515
63.0346 0.515
63.0511 0.614
63.0677 0.460
63.0842 0.504
63.1008 0.493
63.1173 0.575
63.1339 0.510
63.1504 0.389
63.1669 0.521
63.1835 0.449
63.2000 0.564
63.2166 0.477
63.2331 0.515
63.2497 0.581
63.2662 0.526
63.2828 0.532
63.2993 0.488
63.3159 0.499
63.3324 0.471
63.3489 0.477
63.3655 0.356
63.3820 0.460
63.3986 0.493
63.4151 0.477
63.4317 0.471
63.4482 0.466
63.4648 0.449
63.4813 0.395
63.4979 0.482
63.5144 0.449
63.5309 0.510
63.5475 0.444
63.5640 0.499
63.5806 0.504
63.5971 0.526
63.6137 0.400
63.6302 0.389
63.6468 0.460
63.6633 0.455
63.6799 0.537
63.6964 0.499
63.7129 0.471
63.7295 0.537
63.7460 0.532
63.7626 0.471
63.7791 0.515
63.7957 0.449
63.8122 0.422
63.8288 0.411
63.8453 0.559
63.8619 0.603
63.8784 0.471
63.8949 0.466
63.9115 0.510
63.9280 0.521
63.9446 0.499
63.9611 0.619
63.9777 0.499
63.9942 0.471
64.0108 0.570
64.0273 0.559
64.0439 0.438
64.0604 0.542
64.0769 0.532
64.0935 0.482
64.1100 0.548
64.1266 0.488
64.1431 0.455
64.1597 0.542
64.1762 0.438
64.1928 0.488
64.2093 0.521
64.2259 0.499
64.2424 0.532
64.2589 0.570
64.2755 0.559
64.2920 0.482
64.3086 0.471
64.3251 0.433
64.3417 0.619
64.3582 0.499
64.3748 0.416
64.3913 0.537
64.4079 0.564
64.4244 0.521
64.4409 0.526
64.4575 0.559
64.4740 0.510
64.4906 0.493
64.5071 0.504
64.5237 0.373
64.5402 0.548
64.5568 0.559
64.5733 0.488
64.5899 0.575
64.6064 0.515
64.6229 0.548
64.6395 0.532
64.6560 0.537
64.6726 0.427
64.6891 0.537
64.7057 0.586
64.7222 0.466
64.7388 0.477
64.7553 0.466
64.7719 0.548
64.7884 0.444
64.8049 0.592
64.8215 0.455
64.8380 0.493
64.8546 0.537
64.8711 0.510
64.8877 0.559
64.9042 0.504
64.9208 0.559
64.9373 0.521
64.9539 0.510
64.9704 0.466
64.9869 0.466
65.0035 0.559
65.0200 0.493
65.0366 0.455
65.0531 0.482
65.0697 0.504
65.0862 0.581
65.1028 0.477
65.1193 0.570
65.1359 0.526
65.1524 0.510
65.1689 0.504
65.1855 0.526
65.2020 0.542
65.2186 0.597
65.2351 0.488
65.2517 0.603
65.2682 0.493
65.2848 0.548
65.3013 0.608
65.3179 0.603
65.3344 0.482
65.3509 0.581
65.3675 0.504
65.3840 0.690
65.4006 0.510
65.4171 0.729
65.4337 0.597
65.4502 0.504
65.4668 0.526
65.4833 0.575
65.4999 0.553
65.5164 0.619
65.5329 0.581
65.5495 0.575
65.5660 0.614
65.5826 0.526
65.5991 0.630
65.6157 0.647
65.6322 0.581
65.6488 0.564
65.6653 0.636
65.6818 0.767
65.6984 0.647
65.7149 0.734
65.7315 0.712
65.7480 0.636
65.7646 0.690
65.7811 0.751
65.7977 0.800
65.8142 0.674
65.8308 0.674
65.8473 0.723
65.8638 0.778
65.8804 0.745
65.8969 0.729
65.9135 0.888
65.9300 0.784
65.9466 0.953
65.9631 0.910
65.9797 0.937
65.9962 0.937
66.0128 1.216
66.0293 1.321
66.0458 1.255
66.0624 1.496
66.0789 1.512
66.0955 1.501
66.1120 1.704
66.1286 1.896
66.1451 1.923
66.1617 2.258
66.1782 2.351
66.1948 2.608
66.2113 3.134
66.2278 3.578
66.2444 3.989
66.2609 4.570
66.2775 5.178
66.2940 5.973
66.3106 6.707
66.3271 7.611
66.3437 8.888
66.3602 10.258
66.3768 11.901
66.3933 13.266
66.4098 13.929
66.4264 13.573
66.4429 12.548
66.4595 10.104
66.4760 8.822
66.4926 7.386
66.5091 6.647
66.5257 6.466
66.5422 6.559
66.5588 6.663
66.5753 7.107
66.5918 7.485
66.6084 7.260
66.6249 6.586
66.6415 5.085
66.6580 4.055
66.6746 3.288
66.6911 2.548
66.7077 1.973
66.7242 1.616
66.7408 1.425
66.7573 1.304
66.7738 1.326
66.7904 1.118
66.8069 1.063
66.8235 0.964
66.8400 0.964
66.8566 0.855
66.8731 0.773
66.8897 0.877
66.9062 0.767
66.9228 0.866
66.9393 0.838
66.9558 0.800
66.9724 0.805
66.9889 0.921
67.0055 0.789
67.0220 0.701
67.0386 0.805
67.0551 0.707
67.0717 0.712
67.0882 0.784
67.1048 0.795
67.1213 0.740
67.1378 0.767
67.1544 0.701
67.1709 0.729
67.1875 0.844
67.2040 0.723
67.2206 0.674
67.2371 0.833
67.2537 0.663
67.2702 0.707
67.2868 0.784
67.3033 0.756
67.3198 0.800
67.3364 0.696
67.3529 0.778
67.3695 0.838
67.3860 0.745
67.4026 0.860
67.4191 0.822
67.4357 0.729
67.4522 0.745
67.4688 0.827
67.4853 0.882
67.5018 0.756
67.5184 0.805
67.5349 0.844
67.5515 1.090
67.5680 1.003
67.5846 0.855
67.6011 1.129
67.6177 0.899
67.6342 1.134
67.6508 1.145
67.6673 1.266
67.6838 1.392
67.7004 1.386
67.7169 1.523
67.7335 1.633
67.7500 1.742
67.7666 1.830
67.7831 2.093
67.7997 2.296
67.8162 2.433
67.8328 2.915
67.8493 3.085
67.8658 3.156
67.8824 3.742
67.8989 4.329
67.9155 5.019
67.9320 5.737
67.9486 6.449
67.9651 7.238
67.9817 8.542
67.9982 9.929
68.0148 11.578
68.0313 13.781
68.0478 15.578
68.0644 18.318
68.0809 19.726
68.0975 20.488
68.1140 20.219
68.1306 17.918
68.1471 15.293
68.1637 12.882
68.1802 10.745
68.1968 9.397
68.2133 8.762
68.2298 9.189
68.2464 9.825
68.2629 10.362
68.2795 10.592
68.2960 10.515
68.3126 9.375
68.3291 8.499
68.3457 6.526
68.3622 4.751
68.3787 4.000
68.3953 3.107
68.4118 2.416
68.4284 1.956
68.4449 1.682
68.4615 1.611
68.4780 1.222
68.4946 1.381
68.5111 1.364
68.5277 0.986
68.5442 1.140
68.5607 0.975
68.5773 0.860
68.5938 0.926
68.6104 0.838
68.6269 0.932
68.6435 0.767
68.6600 0.888
68.6766 0.805
68.6931 0.729
68.7097 0.745
68.7262 0.745
68.7427 0.767
68.7593 0.679
68.7758 0.707
68.7924 0.762
68.8089 0.614
68.8255 0.603
68.8420 0.641
68.8586 0.734
68.8751 0.581
68.8917 0.734
68.9082 0.668
68.9247 0.658
68.9413 0.636
68.9578 0.564
68.9744 0.597
68.9909 0.548
69.0075 0.592
69.0240 0.537
69.0406 0.532
69.0571 0.542
69.0737 0.564
69.0902 0.526
69.1067 0.548
69.1233 0.707
69.1398 0.597
69.1564 0.515
69.1729 0.515
69.1895 0.679
69.2060 0.433
69.2226 0.444
69.2391 0.542
69.2557 0.499
69.2722 0.471
69.2887 0.521
69.3053 0.488
69.3218 0.515
69.3384 0.559
69.3549 0.526
69.3715 0.477
69.3880 0.499
69.4046 0.548
69.4211 0.449
69.4377 0.460
69.4542 0.499
69.4707 0.493
69.4873 0.537
69.5038 0.499
69.5204 0.553
69.5369 0.455
69.5535 0.488
69.5700 0.477
69.5866 0.400
69.6031 0.471
69.6197 0.427
69.6362 0.526
69.6527 0.532
69.6693 0.526
69.6858 0.532
69.7024 0.482
69.7189 0.493
69.7355 0.537
69.7520 0.477
69.7686 0.515
69.7851 0.477
69.8017 0.510
69.8182 0.427
69.8347 0.521
69.8513 0.411
69.8678 0.471
69.8844 0.597
69.9009 0.482
69.9175 0.537
69.9340 0.510
69.9506 0.493
69.9671 0.493
69.9837 0.466
70.0002 0.356
