'Id: "" Comment: "" Operator: "Administrator" Anode: "Cu" Scantype: "Locked Coupled" TimePerStep: "182.5" X: "0" Y: "0" Z: "0" 
20.0000 2.805
20.0165 2.745
20.0331 2.707
20.0496 2.811
20.0662 2.652
20.0827 2.877
20.0993 2.756
20.1158 2.674
20.1324 2.575
20.1489 2.685
20.1655 2.975
20.1820 2.767
20.1985 2.942
20.2151 2.663
20.2316 2.816
20.2482 2.586
20.2647 2.668
20.2813 2.674
20.2978 2.685
20.3144 2.668
20.3309 2.570
20.3475 2.663
20.3640 2.674
20.3805 2.603
20.3971 2.811
20.4136 2.718
20.4302 2.592
20.4467 2.701
20.4633 2.553
20.4798 2.762
20.4964 2.805
20.5129 2.647
20.5295 2.690
20.5460 2.773
20.5625 2.712
20.5791 2.614
20.5956 2.663
20.6122 2.838
20.6287 2.504
20.6453 2.608
20.6618 2.784
20.6784 2.427
20.6949 2.641
20.7115 2.647
20.7280 2.499
20.7445 2.614
20.7611 2.647
20.7776 2.515
20.7942 2.668
20.8107 2.668
20.8273 2.466
20.8438 2.488
20.8604 2.827
20.8769 2.532
20.8935 2.521
20.9100 2.553
20.9265 2.712
20.9431 2.586
20.9596 2.674
20.9762 2.389
20.9927 2.400
21.0093 2.592
21.0258 2.668
21.0424 2.690
21.0589 2.636
21.0755 2.438
21.0920 2.570
21.1085 2.477
21.1251 2.499
21.1416 2.586
21.1582 2.564
21.1747 2.614
21.1913 2.537
21.2078 2.510
21.2244 2.712
21.2409 2.570
21.2575 2.488
21.2740 2.668
21.2905 2.504
21.3071 2.630
21.3236 2.668
21.3402 2.438
21.3567 2.433
21.3733 2.482
21.3898 2.597
21.4064 2.395
21.4229 2.532
21.4394 2.537
21.4560 2.521
21.4725 2.614
21.4891 2.542
21.5056 2.603
21.5222 2.488
21.5387 2.553
21.5553 2.482
21.5718 2.586
21.5884 2.548
21.6049 2.668
21.6214 2.564
21.6380 2.756
21.6545 2.510
21.6711 2.438
21.6876 2.499
21.7042 2.663
21.7207 2.449
21.7373 2.499
21.7538 2.745
21.7704 2.378
21.7869 2.685
21.8034 2.504
21.8200 2.674
21.8365 2.553
21.8531 2.493
21.8696 2.384
21.8862 2.345
21.9027 2.488
21.9193 2.312
21.9358 2.351
21.9524 2.658
21.9689 2.367
21.9854 2.389
22.0020 2.778
22.0185 2.471
22.0351 2.400
22.0516 2.521
22.0682 2.515
22.0847 2.247
22.1013 2.384
22.1178 2.614
22.1344 2.345
22.1509 2.400
22.1674 2.564
22.1840 2.384
22.2005 2.395
22.2171 2.252
22.2336 2.285
22.2502 2.301
22.2667 2.121
22.2833 2.137
22.2998 2.427
22.3164 2.367
22.3329 2.268
22.3494 2.395
22.3660 2.175
22.3825 2.351
22.3991 2.378
22.4156 2.268
22.4322 2.318
22.4487 2.208
22.4653 2.279
22.4818 2.378
22.4984 2.192
22.5149 2.153
22.5314 2.351
22.5480 2.241
22.5645 2.510
22.5811 2.351
22.5976 2.312
22.6142 2.263
22.6307 2.323
22.6473 2.301
22.6638 2.186
22.6804 2.438
22.6969 2.121
22.7134 2.181
22.7300 2.553
22.7465 2.197
22.7631 2.153
22.7796 2.537
22.7962 2.236
22.8127 2.553
22.8293 2.175
22.8458 2.329
22.8624 2.395
22.8789 2.230
22.8954 2.351
22.9120 2.164
22.9285 2.268
22.9451 2.373
22.9616 2.099
22.9782 2.126
22.9947 2.405
23.0113 2.290
23.0278 2.329
23.0444 2.181
23.0609 2.236
23.0774 2.214
23.0940 2.318
23.1105 2.477
23.1271 2.148
23.1436 2.362
23.1602 2.225
23.1767 2.170
23.1933 2.444
23.2098 2.175
23.2264 2.175
23.2429 2.159
23.2594 2.225
23.2760 2.142
23.2925 2.334
23.3091 2.230
23.3256 2.301
23.3422 2.290
23.3587 2.082
23.3753 2.115
23.3918 2.175
23.4084 2.132
23.4249 2.378
23.4414 2.247
23.4580 2.170
23.4745 2.296
23.4911 2.159
23.5076 2.268
23.5242 2.022
23.5407 2.219
23.5573 2.181
23.5738 2.373
23.5904 2.323
23.6069 2.142
23.6234 2.263
23.6400 2.230
23.6565 2.219
23.6731 2.362
23.6896 2.093
23.7062 2.247
23.7227 2.263
23.7393 2.351
23.7558 2.416
23.7724 2.329
23.7889 2.214
23.8054 2.214
23.8220 2.290
23.8385 2.384
23.8551 2.362
23.8716 2.510
23.8882 2.389
23.9047 2.532
23.9213 2.438
23.9378 2.318
23.9544 2.301
23.9709 2.548
23.9874 2.477
24.0040 2.597
24.0205 2.477
24.0371 2.433
24.0536 2.477
24.0702 2.526
24.0867 2.515
24.1033 2.663
24.1198 2.685
24.1364 2.778
24.1529 2.499
24.1694 2.800
24.1860 2.603
24.2025 2.548
24.2191 2.685
24.2356 2.921
24.2522 2.696
24.2687 2.668
24.2853 2.592
24.3018 2.575
24.3183 2.586
24.3349 2.438
24.3514 2.707
24.3680 2.510
24.3845 2.745
24.4011 2.674
24.4176 2.751
24.4342 2.652
24.4507 2.795
24.4673 2.767
24.4838 2.652
24.5003 2.559
24.5169 2.789
24.5334 2.816
24.5500 2.773
24.5665 2.751
24.5831 2.679
24.5996 2.658
24.6162 2.784
24.6327 2.767
24.6493 2.844
24.6658 2.751
24.6823 3.025
24.6989 2.762
24.7154 2.964
24.7320 3.041
24.7485 2.647
24.7651 2.789
24.7816 2.668
24.7982 2.838
24.8147 2.860
24.8313 2.849
24.8478 2.937
24.8643 2.970
24.8809 2.855
24.8974 2.690
24.9140 3.047
24.9305 2.542
24.9471 2.729
24.9636 2.811
24.9802 2.855
24.9967 2.827
25.0133 2.619
25.0298 2.959
25.0463 3.019
25.0629 2.915
25.0794 2.844
25.0960 3.211
25.1125 2.707
25.1291 3.162
25.1456 2.811
25.1622 3.173
25.1787 3.282
25.1953 3.315
25.2118 3.195
25.2283 3.474
25.2449 3.605
25.2614 3.425
25.2780 3.748
25.2945 3.595
25.3111 4.104
25.3276 4.241
25.3442 4.652
25.3607 4.855
25.3773 5.682
25.3938 6.268
25.4103 6.707
25.4269 8.301
25.4434 9.348
25.4600 11.392
25.4765 13.803
25.4931 17.940
25.5096 21.463
25.5262 26.948
25.5427 32.701
25.5593 36.729
25.5758 37.803
25.5923 35.293
25.6089 31.008
25.6254 26.800
25.6420 22.575
25.6585 18.208
25.6751 13.551
25.6916 10.077
25.7082 7.879
25.7247 6.132
25.7413 5.145
25.7578 4.247
25.7743 4.038
25.7909 3.940
25.8074 3.655
25.8240 3.140
25.8405 3.025
25.8571 3.085
25.8736 2.844
25.8902 3.118
25.9067 2.964
25.9233 2.471
25.9398 2.422
25.9563 2.795
25.9729 2.778
25.9894 2.718
26.0060 2.696
26.0225 2.948
26.0391 2.482
26.0556 2.526
26.0722 2.384
26.0887 2.493
26.1053 2.521
26.1218 2.526
26.1383 2.247
26.1549 2.647
26.1714 2.378
26.1880 2.422
26.2045 2.126
26.2211 2.247
26.2376 2.532
26.2542 2.384
26.2707 2.203
26.2873 2.405
26.3038 2.384
26.3203 2.389
26.3369 2.422
26.3534 2.258
26.3700 2.186
26.3865 2.405
26.4031 2.345
26.4196 2.175
26.4362 2.132
26.4527 2.318
26.4693 2.323
26.4858 2.263
26.5023 2.285
26.5189 2.153
26.5354 2.164
26.5520 2.214
26.5685 2.307
26.5851 2.175
26.6016 2.225
26.6182 2.175
26.6347 2.274
26.6513 2.093
26.6678 2.137
26.6843 2.268
26.7009 1.978
26.7174 2.208
26.7340 2.132
26.7505 2.285
26.7671 2.263
26.7836 2.126
26.8002 2.279
26.8167 2.197
26.8333 2.099
26.8498 2.115
26.8663 2.016
26.8829 2.247
26.8994 2.082
26.9160 2.214
26.9325 2.093
26.9491 2.088
26.9656 2.093
26.9822 2.071
26.9987 2.175
27.0152 2.082
27.0318 1.858
27.0483 2.192
27.0649 2.022
27.0814 1.879
27.0980 1.934
27.1145 1.934
27.1311 1.907
27.1476 2.066
27.1642 2.208
27.1807 2.148
27.1972 2.104
27.2138 2.088
27.2303 2.077
27.2469 2.099
27.2634 2.005
27.2800 2.192
27.2965 1.901
27.3131 1.912
27.3296 1.929
27.3462 2.033
27.3627 2.055
27.3792 2.088
27.3958 2.121
27.4123 2.027
27.4289 2.088
27.4454 2.088
27.4620 2.033
27.4785 2.137
27.4951 2.038
27.5116 1.847
27.5282 2.126
27.5447 1.984
27.5612 1.836
27.5778 1.863
27.5943 1.945
27.6109 1.978
27.6274 2.000
27.6440 1.885
27.6605 2.038
27.6771 1.962
27.6936 2.082
27.7102 1.995
27.7267 1.995
27.7432 1.836
27.7598 2.132
27.7763 1.967
27.7929 1.962
27.8094 2.099
27.8260 2.016
27.8425 2.038
27.8591 1.814
27.8756 1.868
27.8922 1.868
27.9087 1.923
27.9252 1.929
27.9418 2.016
27.9583 1.912
27.9749 1.781
27.9914 1.918
28.0080 1.890
28.0245 1.923
28.0411 1.814
28.0576 1.847
28.0742 1.644
28.0907 1.874
28.1072 1.984
28.1238 1.879
28.1403 1.797
28.1569 2.000
28.1734 1.660
28.1900 1.682
28.2065 1.748
28.2231 1.770
28.2396 2.093
28.2562 2.011
28.2727 2.055
28.2892 1.710
28.3058 1.841
28.3223 1.836
28.3389 1.710
28.3554 1.732
28.3720 1.819
28.3885 1.951
28.4051 1.775
28.4216 1.578
28.4382 1.929
28.4547 1.633
28.4712 1.770
28.4878 1.638
28.5043 1.671
28.5209 1.885
28.5374 1.649
28.5540 1.858
28.5705 1.622
28.5871 1.671
28.6036 1.825
28.6202 1.655
28.6367 1.732
28.6532 1.847
28.6698 1.852
28.6863 1.584
28.7029 1.759
28.7194 1.512
28.7360 1.622
28.7525 1.830
28.7691 1.540
28.7856 1.792
28.8022 1.836
28.8187 1.595
28.8352 1.786
28.8518 1.485
28.8683 1.578
28.8849 1.742
28.9014 1.710
28.9180 1.732
28.9345 1.534
28.9511 1.732
28.9676 1.622
28.9842 1.627
29.0007 1.490
29.0172 1.468
29.0338 1.627
29.0503 1.644
29.0669 1.353
29.0834 1.677
29.1000 1.507
29.1165 1.567
29.1331 1.523
29.1496 1.742
29.1662 1.605
29.1827 1.501
29.1992 1.573
29.2158 1.523
29.2323 1.468
29.2489 1.688
29.2654 1.573
29.2820 1.671
29.2985 1.638
29.3151 1.666
29.3316 1.677
29.3482 1.562
29.3647 1.715
29.3812 1.660
29.3978 1.551
29.4143 1.721
29.4309 1.496
29.4474 1.633
29.4640 1.512
29.4805 1.562
29.4971 1.600
29.5136 1.414
29.5302 1.458
29.5467 1.381
29.5632 1.452
29.5798 1.408
29.5963 1.496
29.6129 1.523
29.6294 1.556
29.6460 1.512
29.6625 1.545
29.6791 1.419
29.6956 1.567
29.7121 1.463
29.7287 1.458
29.7452 1.463
29.7618 1.507
29.7783 1.660
29.7949 1.518
29.8114 1.622
29.8280 1.507
29.8445 1.529
29.8611 1.540
29.8776 1.507
29.8941 1.408
29.9107 1.375
29.9272 1.595
29.9438 1.468
29.9603 1.573
29.9769 1.293
29.9934 1.381
30.0100 1.447
30.0265 1.403
30.0431 1.441
30.0596 1.523
30.0761 1.496
30.0927 1.496
30.1092 1.518
30.1258 1.507
30.1423 1.567
30.1589 1.414
30.1754 1.458
30.1920 1.375
30.2085 1.397
30.2251 1.447
30.2416 1.551
30.2581 1.425
30.2747 1.551
30.2912 1.425
30.3078 1.458
30.3243 1.332
30.3409 1.364
30.3574 1.436
30.3740 1.304
30.3905 1.315
30.4071 1.501
30.4236 1.595
30.4401 1.381
30.4567 1.337
30.4732 1.458
30.4898 1.479
30.5063 1.430
30.5229 1.468
30.5394 1.430
30.5560 1.419
30.5725 1.293
30.5891 1.479
30.6056 1.474
30.6221 1.408
30.6387 1.244
30.6552 1.337
30.6718 1.288
30.6883 1.282
30.7049 1.282
30.7214 1.556
30.7380 1.299
30.7545 1.321
30.7711 1.381
30.7876 1.408
30.8041 1.512
30.8207 1.332
30.8372 1.392
30.8538 1.397
30.8703 1.238
30.8869 1.293
30.9034 1.518
30.9200 1.266
30.9365 1.332
30.9531 1.381
30.9696 1.271
30.9861 1.233
31.0027 1.403
31.0192 1.408
31.0358 1.321
31.0523 1.386
31.0689 1.178
31.0854 1.244
31.1020 1.342
31.1185 1.288
31.1351 1.271
31.1516 1.359
31.1681 1.195
31.1847 1.167
31.2012 1.364
31.2178 1.282
31.2343 1.189
31.2509 1.375
31.2674 1.392
31.2840 1.332
31.3005 1.299
31.3171 1.255
31.3336 1.353
31.3501 1.321
31.3667 1.151
31.3832 1.145
31.3998 1.321
31.4163 1.271
31.4329 1.255
31.4494 1.266
31.4660 1.425
31.4825 1.184
31.4991 1.266
31.5156 1.184
31.5321 1.441
31.5487 1.293
31.5652 1.397
31.5818 1.370
31.5983 1.288
31.6149 1.277
31.6314 1.293
31.6480 1.359
31.6645 1.326
31.6811 1.425
31.6976 1.151
31.7141 1.205
31.7307 1.233
31.7472 1.184
31.7638 1.266
31.7803 1.227
31.7969 1.184
31.8134 1.238
31.8300 1.381
31.8465 1.195
31.8631 1.156
31.8796 1.205
31.8961 1.293
31.9127 1.238
31.9292 1.293
31.9458 1.227
31.9623 1.101
31.9789 1.425
31.9954 1.118
32.0120 1.310
32.0285 1.315
32.0451 1.101
32.0616 1.227
32.0781 1.266
32.0947 1.145
32.1112 1.107
32.1278 1.173
32.1443 1.299
32.1609 1.200
32.1774 1.266
32.1940 1.227
32.2105 1.123
32.2271 1.211
32.2436 1.260
32.2601 1.238
32.2767 1.222
32.2932 1.162
32.3098 1.216
32.3263 1.173
32.3429 1.173
32.3594 1.036
32.3760 1.233
32.3925 1.079
32.4091 1.167
32.4256 1.079
32.4421 1.041
32.4587 1.167
32.4752 1.107
32.4918 1.167
32.5083 1.145
32.5249 1.134
32.5414 1.222
32.5580 1.118
32.5745 1.255
32.5910 1.090
32.6076 1.140
32.6241 1.123
32.6407 1.233
32.6572 1.162
32.6738 1.151
32.6903 1.129
32.7069 1.238
32.7234 1.123
32.7400 1.058
32.7565 1.036
32.7730 1.167
32.7896 1.123
32.8061 1.041
32.8227 1.200
32.8392 1.014
32.8558 1.003
32.8723 1.123
32.8889 1.129
32.9054 1.184
32.9220 1.123
32.9385 1.178
32.9550 1.047
32.9716 0.921
32.9881 1.156
33.0047 1.162
33.0212 1.145
33.0378 1.063
33.0543 1.140
33.0709 1.156
33.0874 1.129
33.1040 1.074
33.1205 1.173
33.1370 1.167
33.1536 1.058
33.1701 1.068
33.1867 1.047
33.2032 1.205
33.2198 1.129
33.2363 1.041
33.2529 1.096
33.2694 1.200
33.2860 1.238
33.3025 1.058
33.3190 0.959
33.3356 1.162
33.3521 1.178
33.3687 1.074
33.3852 1.145
33.4018 1.123
33.4183 1.238
33.4349 1.145
33.4514 0.997
33.4680 1.096
33.4845 1.041
33.5010 0.899
33.5176 1.118
33.5341 1.052
33.5507 1.079
33.5672 1.008
33.5838 1.178
33.6003 1.238
33.6169 1.085
33.6334 1.216
33.6500 1.063
33.6665 1.096
33.6830 1.112
33.6996 1.178
33.7161 1.052
33.7327 1.107
33.7492 1.145
33.7658 1.162
33.7823 1.211
33.7989 1.140
33.8154 1.222
33.8320 1.342
33.8485 1.134
33.8650 1.348
33.8816 1.233
33.8981 1.364
33.9147 1.211
33.9312 1.222
33.9478 1.359
33.9643 1.112
33.9809 1.348
33.9974 1.326
34.0140 1.282
34.0305 1.299
34.0470 1.244
34.0636 1.326
34.0801 1.227
34.0967 1.386
34.1132 1.304
34.1298 1.288
34.1463 1.359
34.1629 1.216
34.1794 1.397
34.1960 1.501
34.2125 1.288
34.2290 1.425
34.2456 1.282
34.2621 1.036
34.2787 1.238
34.2952 1.375
34.3118 1.348
34.3283 1.222
34.3449 1.205
34.3614 1.507
34.3780 1.249
34.3945 1.370
34.4110 1.512
34.4276 1.342
34.4441 1.436
34.4607 1.414
34.4772 1.375
34.4938 1.529
34.5103 1.551
34.5269 1.299
34.5434 1.332
34.5600 1.375
34.5765 1.403
34.5930 1.556
34.6096 1.748
34.6261 1.501
34.6427 1.666
34.6592 1.600
34.6758 1.863
34.6923 1.830
34.7089 1.847
34.7254 1.814
34.7420 2.192
34.7585 2.148
34.7750 2.351
34.7916 2.219
34.8081 2.647
34.8247 2.849
34.8412 3.052
34.8578 3.304
34.8743 3.797
34.8909 4.093
34.9074 4.789
34.9240 5.145
34.9405 6.219
34.9570 7.184
34.9736 8.252
34.9901 9.737
35.0067 12.367
35.0232 14.570
35.0398 18.219
35.0563 21.945
35.0729 27.184
35.0894 34.301
35.1060 40.247
35.1225 46.712
35.1390 48.592
35.1556 46.247
35.1721 40.263
35.1887 35.825
35.2052 31.348
35.2218 28.942
35.2383 25.485
35.2549 20.893
35.2714 15.342
35.2879 10.844
35.3045 7.830
35.3210 5.940
35.3376 4.625
35.3541 4.142
35.3707 3.310
35.3872 2.921
35.4038 2.718
35.4203 2.581
35.4369 2.159
35.4534 2.082
35.4699 2.000
35.4865 1.907
35.5030 1.786
35.5196 1.912
35.5361 1.764
35.5527 1.682
35.5692 1.529
35.5858 1.638
35.6023 1.595
35.6189 1.512
35.6354 1.430
35.6519 1.364
35.6685 1.332
35.6850 1.370
35.7016 1.266
35.7181 1.430
35.7347 1.348
35.7512 1.386
35.7678 1.293
35.7843 1.282
35.8009 1.211
35.8174 1.282
35.8339 1.216
35.8505 1.299
35.8670 1.321
35.8836 1.079
35.9001 1.211
35.9167 1.255
35.9332 1.342
35.9498 1.244
35.9663 1.123
35.9829 1.167
35.9994 1.129
36.0159 1.047
36.0325 1.123
36.0490 1.189
36.0656 1.074
36.0821 1.178
36.0987 1.014
36.1152 1.123
36.1318 1.238
36.1483 1.277
36.1649 1.107
36.1814 1.025
36.1979 1.266
36.2145 1.162
36.2310 1.014
36.2476 1.107
36.2641 1.079
36.2807 1.205
36.2972 1.085
36.3138 1.184
36.3303 1.178
36.3469 1.101
36.3634 1.184
36.3799 1.101
36.3965 1.036
36.4130 1.233
36.4296 1.112
36.4461 1.200
36.4627 1.173
36.4792 0.937
36.4958 1.238
36.5123 1.118
36.5289 1.156
36.5454 1.211
36.5619 1.277
36.5785 1.096
36.5950 1.178
36.6116 1.074
36.6281 1.184
36.6447 0.915
36.6612 1.112
36.6778 1.249
36.6943 1.222
36.7109 1.216
36.7274 1.107
36.7439 0.992
36.7605 0.970
36.7770 1.282
36.7936 1.205
36.8101 1.074
36.8267 1.195
36.8432 1.211
36.8598 0.992
36.8763 1.162
36.8929 1.123
36.9094 1.107
36.9259 1.167
36.9425 1.184
36.9590 1.047
36.9756 1.238
36.9921 1.145
37.0087 1.189
37.0252 1.233
37.0418 1.266
37.0583 1.079
37.0749 0.992
37.0914 1.249
37.1079 1.063
37.1245 1.178
37.1410 1.211
37.1576 1.090
37.1741 1.288
37.1907 1.123
37.2072 1.189
37.2238 1.167
37.2403 1.222
37.2569 1.096
37.2734 1.238
37.2899 1.129
37.3065 1.249
37.3230 1.392
37.3396 1.337
37.3561 1.337
37.3727 1.408
37.3892 1.518
37.4058 1.447
37.4223 1.556
37.4389 1.595
37.4554 1.879
37.4719 2.093
37.4885 1.907
37.5050 2.444
37.5216 2.466
37.5381 2.723
37.5547 3.112
37.5712 3.408
37.5878 3.721
37.6043 4.581
37.6209 5.205
37.6374 5.907
37.6539 6.964
37.6705 8.115
37.6870 9.595
37.7036 12.016
37.7201 15.003
37.7367 17.518
37.7532 19.458
37.7698 19.863
37.7863 17.759
37.8029 16.137
37.8194 13.655
37.8359 12.526
37.8525 11.655
37.8690 10.175
37.8856 8.740
37.9021 6.948
37.9187 5.101
37.9352 3.984
37.9518 2.827
37.9683 2.422
37.9848 2.022
38.0014 1.890
38.0179 1.589
38.0345 1.710
38.0510 1.540
38.0676 1.518
38.0841 1.326
38.1007 1.315
38.1172 1.326
38.1338 1.348
38.1503 1.249
38.1668 1.260
38.1834 1.233
38.1999 1.107
38.2165 1.244
38.2330 1.085
38.2496 1.074
38.2661 1.134
38.2827 1.123
38.2992 1.145
38.3158 1.129
38.3323 1.036
38.3488 1.173
38.3654 1.178
38.3819 1.014
38.3985 0.975
38.4150 0.970
38.4316 1.008
38.4481 1.085
38.4647 1.025
38.4812 1.058
38.4978 1.101
38.5143 0.888
38.5308 1.047
38.5474 0.970
38.5639 1.014
38.5805 0.986
38.5970 1.008
38.6136 1.047
38.6301 1.036
38.6467 0.899
38.6632 1.025
38.6798 1.112
38.6963 1.079
38.7128 0.926
38.7294 1.019
38.7459 1.112
38.7625 1.129
38.7790 0.997
38.7956 0.981
38.8121 1.003
38.8287 1.036
38.8452 1.014
38.8618 0.970
38.8783 0.964
38.8948 0.986
38.9114 1.036
38.9279 1.003
38.9445 1.052
38.9610 0.981
38.9776 0.986
38.9941 0.992
39.0107 1.003
39.0272 0.877
39.0438 1.014
39.0603 0.953
39.0768 0.986
39.0934 0.800
39.1099 0.953
39.1265 0.970
39.1430 0.937
39.1596 0.877
39.1761 0.888
39.1927 0.921
39.2092 0.899
39.2258 1.068
39.2423 0.822
39.2588 0.997
39.2754 0.838
39.2919 0.904
39.3085 0.926
39.3250 0.805
39.3416 0.855
39.3581 0.904
39.3747 0.882
39.3912 0.882
39.4078 0.959
39.4243 0.800
39.4408 0.762
39.4574 0.888
39.4739 0.915
39.4905 0.844
39.5070 0.833
39.5236 0.789
39.5401 0.773
39.5567 0.625
39.5732 0.926
39.5898 0.800
39.6063 0.855
39.6228 0.937
39.6394 1.019
39.6559 0.855
39.6725 0.827
39.6890 0.822
39.7056 0.778
39.7221 0.926
39.7387 0.866
39.7552 0.855
39.7718 0.789
39.7883 0.849
39.8048 0.849
39.8214 0.899
39.8379 0.904
39.8545 0.910
39.8710 0.882
39.8876 0.811
39.9041 0.855
39.9207 0.981
39.9372 0.970
39.9538 0.932
39.9703 0.844
39.9868 0.745
40.0034 0.921
40.0199 0.849
40.0365 0.942
40.0530 0.833
40.0696 0.855
40.0861 0.756
40.1027 0.756
40.1192 0.866
40.1358 0.822
40.1523 0.937
40.1688 0.882
40.1854 0.871
40.2019 0.811
40.2185 0.877
40.2350 0.937
40.2516 0.784
40.2681 0.756
40.2847 0.855
40.3012 0.762
40.3178 0.751
40.3343 0.932
40.3508 1.036
40.3674 0.910
40.3839 0.877
40.4005 0.899
40.4170 0.762
40.4336 0.975
40.4501 0.767
40.4667 0.964
40.4832 0.811
40.4998 0.888
40.5163 0.827
40.5328 0.893
40.5494 0.838
40.5659 0.838
40.5825 0.778
40.5990 0.953
40.6156 0.784
40.6321 0.784
40.6487 0.811
40.6652 0.855
40.6818 0.685
40.6983 0.910
40.7148 0.959
40.7314 0.773
40.7479 0.762
40.7645 0.696
40.7810 0.805
40.7976 0.762
40.8141 0.844
40.8307 0.756
40.8472 0.921
40.8637 0.893
40.8803 0.816
40.8968 0.784
40.9134 0.899
40.9299 0.789
40.9465 0.740
40.9630 0.740
40.9796 0.745
40.9961 0.959
41.0127 0.860
41.0292 0.773
41.0457 0.849
41.0623 0.718
41.0788 0.937
41.0954 0.904
41.1119 0.855
41.1285 0.871
41.1450 0.838
41.1616 1.025
41.1781 0.778
41.1947 0.838
41.2112 0.707
41.2277 0.718
41.2443 0.827
41.2608 0.948
41.2774 0.805
41.2939 0.767
41.3105 0.838
41.3270 0.789
41.3436 0.795
41.3601 0.773
41.3767 1.019
41.3932 0.904
41.4097 0.904
41.4263 0.800
41.4428 0.827
41.4594 0.964
41.4759 1.003
41.4925 0.734
41.5090 0.997
41.5256 0.893
41.5421 0.981
41.5587 0.981
41.5752 0.915
41.5917 1.058
41.6083 1.145
41.6248 1.222
41.6414 1.162
41.6579 1.145
41.6745 1.392
41.6910 1.129
41.7076 1.195
41.7241 1.041
41.7407 1.107
41.7572 1.140
41.7737 1.090
41.7903 1.167
41.8068 1.047
41.8234 1.112
41.8399 1.041
41.8565 0.910
41.8730 0.948
41.8896 0.959
41.9061 1.030
41.9227 0.849
41.9392 1.079
41.9557 1.058
41.9723 0.937
41.9888 1.074
42.0054 0.816
42.0219 0.948
42.0385 0.882
42.0550 0.882
42.0716 0.992
42.0881 0.893
42.1047 1.074
42.1212 0.926
42.1377 0.932
42.1543 0.932
42.1708 0.964
42.1874 1.041
42.2039 0.953
42.2205 0.959
42.2370 1.003
42.2536 0.964
42.2701 1.003
42.2867 0.997
42.3032 0.997
42.3197 1.123
42.3363 1.085
42.3528 1.074
42.3694 0.959
42.3859 0.937
42.4025 1.008
42.4190 1.041
42.4356 1.068
42.4521 1.008
42.4687 0.970
42.4852 0.926
42.5017 1.090
42.5183 1.107
42.5348 1.058
42.5514 1.118
42.5679 1.151
42.5845 1.118
42.6010 0.992
42.6176 1.085
42.6341 1.129
42.6507 1.184
42.6672 1.167
42.6837 1.074
42.7003 1.216
42.7168 1.063
42.7334 1.288
42.7499 1.293
42.7665 1.326
42.7830 1.370
42.7996 1.370
42.8161 1.353
42.8327 1.490
42.8492 1.436
42.8657 1.556
42.8823 1.496
42.8988 1.852
42.9154 1.863
42.9319 1.852
42.9485 2.088
42.9650 2.142
42.9816 2.389
42.9981 2.756
43.0147 2.756
43.0312 3.282
43.0477 3.567
43.0643 4.186
43.0808 4.542
43.0974 5.222
43.1139 6.104
43.1305 6.537
43.1470 7.633
43.1636 8.981
43.1801 10.340
43.1967 12.208
43.2132 14.685
43.2297 17.162
43.2463 20.526
43.2628 25.140
43.2794 31.260
43.2959 36.268
43.3125 42.964
43.3290 47.562
43.3456 47.364
43.3621 43.304
43.3787 38.038
43.3952 31.381
43.4117 28.647
43.4283 27.737
43.4448 26.323
43.4614 24.088
43.4779 20.000
43.4945 15.732
43.5110 11.315
43.5276 8.038
43.5441 5.852
43.5606 4.345
43.5772 3.578
43.5937 3.326
43.6103 2.986
43.6268 2.521
43.6434 2.088
43.6599 2.066
43.6765 1.978
43.6930 1.737
43.7096 1.567
43.7261 1.512
43.7426 1.622
43.7592 1.397
43.7757 1.408
43.7923 1.288
43.8088 1.436
43.8254 1.310
43.8419 1.315
43.8585 1.173
43.8750 1.293
43.8916 1.216
43.9081 1.145
43.9246 1.085
43.9412 0.964
43.9577 1.008
43.9743 1.101
43.9908 0.997
44.0074 1.096
44.0239 1.074
44.0405 1.068
44.0570 1.068
44.0736 1.090
44.0901 1.129
44.1066 1.036
44.1232 0.992
44.1397 1.063
44.1563 1.025
44.1728 0.959
44.1894 0.942
44.2059 0.926
44.2225 0.992
44.2390 1.030
44.2556 0.899
44.2721 0.877
44.2886 0.904
44.3052 0.899
44.3217 0.860
44.3383 0.937
44.3548 0.816
44.3714 0.816
44.3879 0.904
44.4045 0.942
44.4210 0.904
44.4376 0.904
44.4541 0.827
44.4706 0.838
44.4872 0.767
44.5037 0.756
44.5203 0.926
44.5368 0.953
44.5534 0.767
44.5699 0.915
44.5865 0.822
44.6030 0.811
44.6196 0.816
44.6361 0.789
44.6526 0.740
44.6692 0.844
44.6857 0.811
44.7023 0.784
44.7188 0.784
44.7354 0.740
44.7519 0.833
44.7685 0.734
44.7850 0.855
44.8016 0.729
44.8181 0.679
44.8346 0.816
44.8512 0.652
44.8677 0.800
44.8843 0.690
44.9008 0.844
44.9174 0.795
44.9339 0.811
44.9505 0.910
44.9670 0.849
44.9836 0.811
45.0001 0.734
45.0166 0.762
45.0332 0.723
45.0497 0.729
45.0663 0.778
45.0828 0.784
45.0994 0.811
45.1159 0.811
45.1325 0.805
45.1490 0.707
45.1656 0.926
45.1821 0.866
45.1986 0.800
45.2152 0.893
45.2317 0.921
45.2483 0.745
45.2648 0.707
45.2814 0.767
45.2979 0.674
45.3145 0.849
45.3310 0.844
45.3476 0.658
45.3641 0.674
45.3806 0.778
45.3972 0.756
45.4137 0.751
45.4303 0.679
45.4468 0.767
45.4634 0.690
45.4799 0.899
45.4965 0.899
45.5130 0.740
45.5296 0.773
45.5461 0.751
45.5626 0.789
45.5792 0.838
45.5957 0.679
45.6123 0.838
45.6288 0.723
45.6454 0.773
45.6619 0.614
45.6785 0.756
45.6950 0.789
45.7116 0.855
45.7281 0.690
45.7446 0.685
45.7612 0.789
45.7777 0.712
45.7943 0.816
45.8108 0.690
45.8274 0.740
45.8439 0.701
45.8605 0.630
45.8770 0.767
45.8936 0.745
45.9101 0.789
45.9266 0.696
45.9432 0.784
45.9597 0.948
45.9763 0.860
45.9928 0.888
46.0094 0.789
46.0259 0.860
46.0425 0.953
46.0590 0.926
46.0756 0.970
46.0921 1.030
46.1086 1.293
46.1252 1.118
46.1417 1.173
46.1583 1.288
46.1748 1.030
46.1914 1.244
46.2079 1.025
46.2245 1.107
46.2410 0.942
46.2575 0.970
46.2741 0.866
46.2906 0.921
46.3072 1.047
46.3237 0.811
46.3403 0.970
46.3568 0.745
46.3734 0.674
46.3899 0.882
46.4065 0.795
46.4230 0.707
46.4395 0.756
46.4561 0.712
46.4726 0.756
46.4892 0.751
46.5057 0.773
46.5223 0.756
46.5388 0.668
46.5554 0.789
46.5719 0.685
46.5885 0.789
46.6050 0.652
46.6215 0.685
46.6381 0.592
46.6546 0.685
46.6712 0.663
46.6877 0.663
46.7043 0.696
46.7208 0.575
46.7374 0.663
46.7539 0.636
46.7705 0.723
46.7870 0.674
46.8035 0.679
46.8201 0.762
46.8366 0.614
46.8532 0.641
46.8697 0.608
46.8863 0.685
46.9028 0.586
46.9194 0.701
46.9359 0.822
46.9525 0.745
46.9690 0.723
46.9855 0.537
47.0021 0.641
47.0186 0.679
47.0352 0.630
47.0517 0.723
47.0683 0.756
47.0848 0.805
47.1014 0.625
47.1179 0.784
47.1345 0.707
47.1510 0.696
47.1675 0.679
47.1841 0.597
47.2006 0.603
47.2172 0.800
47.2337 0.690
47.2503 0.647
47.2668 0.630
47.2834 0.532
47.2999 0.712
47.3165 0.614
47.3330 0.636
47.3495 0.685
47.3661 0.592
47.3826 0.575
47.3992 0.630
47.4157 0.625
47.4323 0.696
47.4488 0.515
47.4654 0.647
47.4819 0.586
47.4985 0.658
47.5150 0.652
47.5315 0.707
47.5481 0.641
47.5646 0.652
47.5812 0.647
47.5977 0.564
47.6143 0.707
47.6308 0.559
47.6474 0.564
47.6639 0.641
47.6805 0.570
47.6970 0.592
47.7135 0.647
47.7301 0.773
47.7466 0.597
47.7632 0.510
47.7797 0.647
47.7963 0.685
47.8128 0.734
47.8294 0.614
47.8459 0.641
47.8625 0.636
47.8790 0.614
47.8955 0.542
47.9121 0.707
47.9286 0.608
47.9452 0.592
47.9617 0.548
47.9783 0.548
47.9948 0.641
48.0114 0.570
48.0279 0.652
48.0445 0.636
48.0610 0.553
48.0775 0.674
48.0941 0.674
48.1106 0.542
48.1272 0.521
48.1437 0.641
48.1603 0.592
48.1768 0.658
48.1934 0.575
48.2099 0.570
48.2265 0.658
48.2430 0.597
48.2595 0.570
48.2761 0.668
48.2926 0.586
48.3092 0.679
48.3257 0.614
48.3423 0.723
48.3588 0.608
48.3754 0.499
48.3919 0.488
48.4085 0.603
48.4250 0.575
48.4415 0.597
48.4581 0.504
48.4746 0.537
48.4912 0.690
48.5077 0.542
48.5243 0.581
48.5408 0.553
48.5574 0.668
48.5739 0.537
48.5905 0.696
48.6070 0.647
48.6235 0.685
48.6401 0.504
48.6566 0.625
48.6732 0.603
48.6897 0.636
48.7063 0.581
48.7228 0.625
48.7394 0.499
48.7559 0.641
48.7725 0.619
48.7890 0.619
48.8055 0.564
48.8221 0.570
48.8386 0.597
48.8552 0.597
48.8717 0.663
48.8883 0.592
48.9048 0.597
48.9214 0.603
48.9379 0.493
48.9545 0.548
48.9710 0.570
48.9875 0.532
49.0041 0.548
49.0206 0.723
49.0372 0.592
49.0537 0.701
49.0703 0.658
49.0868 0.630
49.1034 0.592
49.1199 0.674
49.1364 0.625
49.1530 0.636
49.1695 0.581
49.1861 0.592
49.2026 0.636
49.2192 0.630
49.2357 0.636
49.2523 0.630
49.2688 0.559
49.2854 0.641
49.3019 0.647
49.3184 0.504
49.3350 0.537
49.3515 0.553
49.3681 0.603
49.3846 0.537
49.4012 0.679
49.4177 0.548
49.4343 0.570
49.4508 0.625
49.4674 0.625
49.4839 0.526
49.5004 0.690
49.5170 0.614
49.5335 0.510
49.5501 0.526
49.5666 0.597
49.5832 0.581
49.5997 0.460
49.6163 0.608
49.6328 0.581
49.6494 0.553
49.6659 0.614
49.6824 0.575
49.6990 0.482
49.7155 0.575
49.7321 0.586
49.7486 0.586
49.7652 0.636
49.7817 0.647
49.7983 0.466
49.8148 0.641
49.8314 0.564
49.8479 0.592
49.8644 0.564
49.8810 0.526
49.8975 0.636
49.9141 0.575
49.9306 0.592
49.9472 0.521
49.9637 0.608
49.9803 0.559
49.9968 0.619
50.0134 0.553
50.0299 0.712
50.0464 0.674
50.0630 0.532
50.0795 0.647
50.0961 0.548
50.1126 0.532
50.1292 0.641
50.1457 0.542
50.1623 0.674
50.1788 0.707
50.1954 0.658
50.2119 0.559
50.2284 0.553
50.2450 0.636
50.2615 0.575
50.2781 0.592
50.2946 0.658
50.3112 0.619
50.3277 0.460
50.3443 0.685
50.3608 0.636
50.3774 0.504
50.3939 0.586
50.4104 0.542
50.4270 0.548
50.4435 0.608
50.4601 0.581
50.4766 0.597
50.4932 0.641
50.5097 0.614
50.5263 0.652
50.5428 0.641
50.5594 0.674
50.5759 0.592
50.5924 0.647
50.6090 0.668
50.6255 0.625
50.6421 0.636
50.6586 0.592
50.6752 0.630
50.6917 0.553
50.7083 0.690
50.7248 0.614
50.7414 0.630
50.7579 0.652
50.7744 0.614
50.7910 0.603
50.8075 0.625
50.8241 0.718
50.8406 0.696
50.8572 0.762
50.8737 0.740
50.8903 0.690
50.9068 0.712
50.9234 0.619
50.9399 0.723
50.9564 0.575
50.9730 0.559
50.9895 0.542
51.0061 0.663
51.0226 0.548
51.0392 0.564
51.0557 0.575
51.0723 0.668
51.0888 0.641
51.1054 0.619
51.1219 0.619
51.1384 0.586
51.1550 0.636
51.1715 0.641
51.1881 0.630
51.2046 0.636
51.2212 0.553
51.2377 0.652
51.2543 0.647
51.2708 0.745
51.2874 0.690
51.3039 0.542
51.3204 0.679
51.3370 0.592
51.3535 0.614
51.3701 0.647
51.3866 0.652
51.4032 0.707
51.4197 0.751
51.4363 0.718
51.4528 0.696
51.4694 0.778
51.4859 0.762
51.5024 0.756
51.5190 0.663
51.5355 0.729
51.5521 0.712
51.5686 0.652
51.5852 0.696
51.6017 0.740
51.6183 0.690
51.6348 0.685
51.6514 0.630
51.6679 0.625
51.6844 0.718
51.7010 0.570
51.7175 0.784
51.7341 0.674
51.7506 0.745
51.7672 0.674
51.7837 0.712
51.8003 0.751
51.8168 0.630
51.8333 0.740
51.8499 0.745
51.8664 0.784
51.8830 0.756
51.8995 0.767
51.9161 0.866
51.9326 0.822
51.9492 0.668
51.9657 0.762
51.9823 0.734
51.9988 0.789
52.0153 0.932
52.0319 0.937
52.0484 0.910
52.0650 0.893
52.0815 1.003
52.0981 1.019
52.1146 1.058
52.1312 1.282
52.1477 1.436
52.1643 1.293
52.1808 1.326
52.1973 1.912
52.2139 1.742
52.2304 1.973
52.2470 2.088
52.2635 2.279
52.2801 2.811
52.2966 3.036
52.3132 3.534
52.3297 3.792
52.3463 4.411
52.3628 4.521
52.3793 5.310
52.3959 6.290
52.4124 7.205
52.4290 8.712
52.4455 10.318
52.4621 12.997
52.4786 14.904
52.4952 17.107
52.5117 19.397
52.5283 20.427
52.5448 19.595
52.5613 17.967
52.5779 14.252
52.5944 12.323
52.6110 11.019
52.6275 10.603
52.6441 10.921
52.6606 11.293
52.6772 10.334
52.6937 9.260
52.7103 7.611
52.7268 5.496
52.7433 4.307
52.7599 3.348
52.7764 2.422
52.7930 1.830
52.8095 1.721
52.8261 1.633
52.8426 1.414
52.8592 1.370
52.8757 1.332
52.8923 1.074
52.9088 1.063
52.9253 1.047
52.9419 0.756
52.9584 0.888
52.9750 0.893
52.9915 0.888
53.0081 0.882
53.0246 0.800
53.0412 0.756
53.0577 0.800
53.0743 0.685
53.0908 0.805
53.1073 0.849
53.1239 0.778
53.1404 0.789
53.1570 0.696
53.1735 0.729
53.1901 0.762
53.2066 0.756
53.2232 0.636
53.2397 0.701
53.2563 0.784
53.2728 0.712
53.2893 0.734
53.3059 0.652
53.3224 0.641
53.3390 0.658
53.3555 0.679
53.3721 0.625
53.3886 0.548
53.4052 0.652
53.4217 0.652
53.4383 0.614
53.4548 0.663
53.4713 0.619
53.4879 0.526
53.5044 0.636
53.5210 0.641
53.5375 0.619
53.5541 0.537
53.5706 0.630
53.5872 0.630
53.6037 0.559
53.6203 0.630
53.6368 0.521
53.6533 0.679
53.6699 0.641
53.6864 0.603
53.7030 0.614
53.7195 0.564
53.7361 0.723
53.7526 0.701
53.7692 0.614
53.7857 0.592
53.8023 0.542
53.8188 0.521
53.8353 0.548
53.8519 0.603
53.8684 0.597
53.8850 0.548
53.9015 0.707
53.9181 0.471
53.9346 0.586
53.9512 0.444
53.9677 0.636
53.9843 0.658
54.0008 0.625
54.0173 0.510
54.0339 0.537
54.0504 0.499
54.0670 0.658
54.0835 0.493
54.1001 0.510
54.1166 0.586
54.1332 0.559
54.1497 0.559
54.1663 0.548
54.1828 0.510
54.1993 0.504
54.2159 0.603
54.2324 0.542
54.2490 0.586
54.2655 0.537
54.2821 0.471
54.2986 0.586
54.3152 0.586
54.3317 0.537
54.3483 0.647
54.3648 0.526
54.3813 0.581
54.3979 0.641
54.4144 0.553
54.4310 0.466
54.4475 0.559
54.4641 0.477
54.4806 0.570
54.4972 0.570
54.5137 0.548
54.5302 0.537
54.5468 0.444
54.5633 0.570
54.5799 0.548
54.5964 0.537
54.6130 0.526
54.6295 0.449
54.6461 0.619
54.6626 0.603
54.6792 0.575
54.6957 0.625
54.7122 0.510
54.7288 0.493
54.7453 0.701
54.7619 0.510
54.7784 0.614
54.7950 0.575
54.8115 0.411
54.8281 0.510
54.8446 0.471
54.8612 0.504
54.8777 0.630
54.8942 0.636
54.9108 0.537
54.9273 0.466
54.9439 0.597
54.9604 0.488
54.9770 0.570
54.9935 0.537
55.0101 0.504
55.0266 0.559
55.0432 0.477
55.0597 0.553
55.0762 0.592
55.0928 0.499
55.1093 0.559
55.1259 0.586
55.1424 0.493
55.1590 0.542
55.1755 0.515
55.1921 0.537
55.2086 0.548
55.2252 0.592
55.2417 0.570
55.2582 0.652
55.2748 0.614
55.2913 0.586
55.3079 0.647
55.3244 0.658
55.3410 0.729
55.3575 0.668
55.3741 0.625
55.3906 0.614
55.4072 0.696
55.4237 0.718
55.4402 0.641
55.4568 0.608
55.4733 0.570
55.4899 0.679
55.5064 0.729
55.5230 0.745
55.5395 0.636
55.5561 0.548
55.5726 0.647
55.5892 0.679
55.6057 0.740
55.6222 0.636
55.6388 0.685
55.6553 0.603
55.6719 0.542
55.6884 0.559
55.7050 0.658
55.7215 0.762
55.7381 0.608
55.7546 0.647
55.7712 0.608
55.7877 0.625
55.8042 0.586
55.8208 0.559
55.8373 0.532
55.8539 0.510
55.8704 0.652
55.8870 0.652
55.9035 0.718
55.9201 0.690
55.9366 0.641
55.9532 0.581
55.9697 0.729
55.9862 0.712
56.0028 0.795
56.0193 0.647
56.0359 0.603
56.0524 0.652
56.0690 0.674
56.0855 0.608
56.1021 0.679
56.1186 0.690
56.1352 0.581
56.1517 0.663
56.1682 0.647
56.1848 0.542
56.2013 0.723
56.2179 0.614
56.2344 0.679
56.2510 0.778
56.2675 0.707
56.2841 0.712
56.3006 0.614
56.3172 0.652
56.3337 0.592
56.3502 0.767
56.3668 0.619
56.3833 0.762
56.3999 0.559
56.4164 0.701
56.4330 0.668
56.4495 0.636
56.4661 0.685
56.4826 0.652
56.4992 0.756
56.5157 0.658
56.5322 0.701
56.5488 0.740
56.5653 0.751
56.5819 0.784
56.5984 0.740
56.6150 0.663
56.6315 0.762
56.6481 0.745
56.6646 0.795
56.6812 0.734
56.6977 0.849
56.7142 0.959
56.7308 0.866
56.7473 0.932
56.7639 0.789
56.7804 0.871
56.7970 0.932
56.8135 0.882
56.8301 0.833
56.8466 0.964
56.8632 1.008
56.8797 1.003
56.8962 1.162
56.9128 1.101
56.9293 1.036
56.9459 1.123
56.9624 1.162
56.9790 1.222
56.9955 1.216
57.0121 1.381
57.0286 1.578
57.0452 1.573
57.0617 1.693
57.0782 1.995
57.0948 1.995
57.1113 2.323
57.1279 2.433
57.1444 2.871
57.1610 3.151
57.1775 3.753
57.1941 3.836
57.2106 4.532
57.2272 5.068
57.2437 5.496
57.2602 5.934
57.2768 6.844
57.2933 7.649
57.3099 9.819
57.3264 11.189
57.3430 12.690
57.3595 15.233
57.3761 18.071
57.3926 21.315
57.4091 25.529
57.4257 29.479
57.4422 34.290
57.4588 37.836
57.4753 39.605
57.4919 37.786
57.5084 34.005
57.5250 27.567
57.5415 22.915
57.5581 20.093
57.5746 18.340
57.5911 19.518
57.6077 20.093
57.6242 20.132
57.6408 19.748
57.6573 17.315
57.6739 13.600
57.6904 10.334
57.7070 7.178
57.7235 5.671
57.7401 4.608
57.7566 3.266
57.7731 2.970
57.7897 2.559
57.8062 2.137
57.8228 2.055
57.8393 1.874
57.8559 1.797
57.8724 1.403
57.8890 1.441
57.9055 1.381
57.9221 1.249
57.9386 1.315
57.9551 1.134
57.9717 1.096
57.9882 1.249
58.0048 1.090
58.0213 0.921
58.0379 1.129
58.0544 0.888
58.0710 0.992
58.0875 0.827
58.1041 0.904
58.1206 0.877
58.1371 0.838
58.1537 0.888
58.1702 0.784
58.1868 0.762
58.2033 0.882
58.2199 0.745
58.2364 0.723
58.2530 0.784
58.2695 0.871
58.2861 0.778
58.3026 0.734
58.3191 0.822
58.3357 0.586
58.3522 0.723
58.3688 0.696
58.3853 0.685
58.4019 0.647
58.4184 0.575
58.4350 0.701
58.4515 0.773
58.4681 0.636
58.4846 0.690
58.5011 0.685
58.5177 0.647
58.5342 0.696
58.5508 0.652
58.5673 0.641
58.5839 0.608
58.6004 0.542
58.6170 0.707
58.6335 0.564
58.6501 0.712
58.6666 0.625
58.6831 0.668
58.6997 0.564
58.7162 0.619
58.7328 0.636
58.7493 0.570
58.7659 0.575
58.7824 0.679
58.7990 0.614
58.8155 0.438
58.8321 0.564
58.8486 0.608
58.8651 0.597
58.8817 0.603
58.8982 0.537
58.9148 0.597
58.9313 0.608
58.9479 0.603
58.9644 0.597
58.9810 0.581
58.9975 0.564
59.0141 0.608
59.0306 0.608
59.0471 0.603
59.0637 0.663
59.0802 0.625
59.0968 0.652
59.1133 0.553
59.1299 0.553
59.1464 0.581
59.1630 0.614
59.1795 0.619
59.1961 0.597
59.2126 0.537
59.2291 0.641
59.2457 0.548
59.2622 0.586
59.2788 0.542
59.2953 0.477
59.3119 0.532
59.3284 0.564
59.3450 0.641
59.3615 0.668
59.3781 0.679
59.3946 0.619
59.4111 0.674
59.4277 0.690
59.4442 0.586
59.4608 0.833
59.4773 0.636
59.4939 0.641
59.5104 0.696
59.5270 0.778
59.5435 0.789
59.5601 0.690
59.5766 0.745
59.5931 0.816
59.6097 0.953
59.6262 0.948
59.6428 1.140
59.6593 1.255
59.6759 1.299
59.6924 1.419
59.7090 1.485
59.7255 1.688
59.7421 1.414
59.7586 1.310
59.7751 1.195
59.7917 1.140
59.8082 0.827
59.8248 1.058
59.8413 0.877
59.8579 0.921
59.8744 1.019
59.8910 1.014
59.9075 0.899
59.9241 0.871
59.9406 0.723
59.9571 0.679
59.9737 0.663
59.9902 0.696
60.0068 0.548
60.0233 0.581
60.0399 0.647
60.0564 0.581
60.0730 0.647
60.0895 0.493
60.1060 0.625
60.1226 0.592
60.1391 0.542
60.1557 0.712
60.1722 0.542
60.1888 0.504
60.2053 0.526
60.2219 0.488
60.2384 0.586
60.2550 0.581
60.2715 0.586
60.2880 0.575
60.3046 0.614
60.3211 0.559
60.3377 0.564
60.3542 0.499
60.3708 0.537
60.3873 0.586
60.4039 0.526
60.4204 0.532
60.4370 0.542
60.4535 0.515
60.4700 0.592
60.4866 0.674
60.5031 0.477
60.5197 0.652
60.5362 0.493
60.5528 0.581
60.5693 0.668
60.5859 0.668
60.6024 0.586
60.6190 0.603
60.6355 0.597
60.6520 0.625
60.6686 0.603
60.6851 0.581
60.7017 0.597
60.7182 0.619
60.7348 0.674
60.7513 0.625
60.7679 0.679
60.7844 0.729
60.8010 0.658
60.8175 0.756
60.8340 0.729
60.8506 0.718
60.8671 0.910
60.8837 0.855
60.9002 1.025
60.9168 1.014
60.9333 0.975
60.9499 1.129
60.9664 1.030
60.9830 1.282
60.9995 1.205
61.0160 1.452
61.0326 1.540
61.0491 1.825
61.0657 1.753
61.0822 2.000
61.0988 2.290
61.1153 2.471
61.1319 2.225
61.1484 2.351
61.1650 2.208
61.1815 2.504
61.1980 2.707
61.2146 3.403
61.2311 3.211
61.2477 3.545
61.2642 3.847
61.2808 4.033
61.2973 3.721
61.3139 3.118
61.3304 2.767
61.3470 2.367
61.3635 2.088
61.3800 1.803
61.3966 1.879
61.4131 1.951
61.4297 2.033
61.4462 2.170
61.4628 1.868
61.4793 1.693
61.4959 1.485
61.5124 1.288
61.5290 1.008
61.5455 1.003
61.5620 0.833
61.5786 0.871
61.5951 0.773
61.6117 0.942
61.6282 0.762
61.6448 0.690
61.6613 0.690
61.6779 0.745
61.6944 0.707
61.7110 0.537
61.7275 0.647
61.7440 0.630
61.7606 0.586
61.7771 0.553
61.7937 0.619
61.8102 0.614
61.8268 0.663
61.8433 0.592
61.8599 0.608
61.8764 0.575
61.8930 0.537
61.9095 0.510
61.9260 0.477
61.9426 0.553
61.9591 0.532
61.9757 0.482
61.9922 0.449
62.0088 0.575
62.0253 0.548
62.0419 0.438
62.0584 0.537
62.0750 0.499
62.0915 0.510
62.1080 0.548
62.1246 0.438
62.1411 0.466
62.1577 0.466
62.1742 0.542
62.1908 0.542
62.2073 0.532
62.2239 0.510
62.2404 0.433
62.2570 0.460
62.2735 0.510
62.2900 0.482
62.3066 0.477
62.3231 0.482
62.3397 0.510
62.3562 0.460
62.3728 0.449
62.3893 0.444
62.4059 0.553
62.4224 0.477
62.4390 0.427
62.4555 0.400
62.4720 0.416
62.4886 0.504
62.5051 0.466
62.5217 0.553
62.5382 0.510
62.5548 0.477
62.5713 0.559
62.5879 0.532
62.6044 0.575
62.6210 0.471
62.6375 0.564
62.6540 0.515
62.6706 0.537
62.6871 0.427
62.7037 0.427
62.7202 0.521
62.7368 0.493
62.7533 0.455
62.7699 0.499
62.7864 0.471
62.8029 0.449
62.8195 0.438
62.8360 0.537
62.8526 0.444
62.8691 0.460
62.8857 0.466
62.9022 0.411
62.9188 0.455
62.9353 0.416
62.9519 0.405
62.9684 0.444
62.9849 0.510
63.0015 0.345
63.0180 0.493
63.0346 0.493
63.0511 0.488
63.0677 0.455
63.0842 0.405
63.1008 0.510
63.1173 0.493
63.1339 0.455
63.1504 0.515
63.1669 0.564
63.1835 0.438
63.2000 0.416
63.2166 0.515
63.2331 0.482
63.2497 0.444
63.2662 0.488
63.2828 0.438
63.2993 0.471
63.3159 0.504
63.3324 0.373
63.3489 0.559
63.3655 0.444
63.3820 0.466
63.3986 0.444
63.4151 0.427
63.4317 0.449
63.4482 0.400
63.4648 0.460
63.4813 0.373
63.4979 0.449
63.5144 0.460
63.5309 0.433
63.5475 0.504
63.5640 0.510
63.5806 0.482
63.5971 0.438
63.6137 0.449
63.6302 0.471
63.6468 0.449
63.6633 0.416
63.6799 0.405
63.6964 0.477
63.7129 0.493
63.7295 0.362
63.7460 0.411
63.7626 0.559
63.7791 0.499
63.7957 0.438
63.8122 0.411
63.8288 0.378
63.8453 0.378
63.8619 0.444
63.8784 0.395
63.8949 0.515
63.9115 0.395
63.9280 0.526
63.9446 0.586
63.9611 0.510
63.9777 0.526
63.9942 0.515
64.0108 0.608
64.0273 0.542
64.0439 0.499
64.0604 0.559
64.0769 0.559
64.0935 0.548
64.1100 0.471
64.1266 0.438
64.1431 0.488
64.1597 0.504
64.1762 0.460
64.1928 0.438
64.2093 0.488
64.2259 0.542
64.2424 0.526
64.2589 0.411
64.2755 0.433
64.2920 0.411
64.3086 0.395
64.3251 0.564
64.3417 0.548
64.3582 0.471
64.3748 0.384
64.3913 0.548
64.4079 0.586
64.4244 0.488
64.4409 0.427
64.4575 0.384
64.4740 0.422
64.4906 0.444
64.5071 0.433
64.5237 0.488
64.5402 0.427
64.5568 0.521
64.5733 0.499
64.5899 0.493
64.6064 0.466
64.6229 0.438
64.6395 0.449
64.6560 0.521
64.6726 0.499
64.6891 0.482
64.7057 0.510
64.7222 0.510
64.7388 0.553
64.7553 0.438
64.7719 0.449
64.7884 0.438
64.8049 0.510
64.8215 0.444
64.8380 0.493
64.8546 0.433
64.8711 0.444
64.8877 0.537
64.9042 0.438
64.9208 0.427
64.9373 0.488
64.9539 0.416
64.9704 0.384
64.9869 0.482
65.0035 0.493
65.0200 0.493
65.0366 0.515
65.0531 0.477
65.0697 0.455
65.0862 0.510
65.1028 0.542
65.1193 0.488
65.1359 0.449
65.1524 0.515
65.1689 0.559
65.1855 0.548
65.2020 0.455
65.2186 0.532
65.2351 0.488
65.2517 0.548
65.2682 0.488
65.2848 0.444
65.3013 0.553
65.3179 0.652
65.3344 0.548
65.3509 0.548
65.3675 0.493
65.3840 0.608
65.4006 0.510
65.4171 0.493
65.4337 0.542
65.4502 0.449
65.4668 0.559
65.4833 0.559
65.4999 0.515
65.5164 0.504
65.5329 0.592
65.5495 0.570
65.5660 0.499
65.5826 0.614
65.5991 0.575
65.6157 0.581
65.6322 0.559
65.6488 0.603
65.6653 0.619
65.6818 0.636
65.6984 0.597
65.7149 0.636
65.7315 0.674
65.7480 0.603
65.7646 0.641
65.7811 0.652
65.7977 0.559
65.8142 0.553
65.8308 0.674
65.8473 0.674
65.8638 0.679
65.8804 0.586
65.8969 0.729
65.9135 0.734
65.9300 0.833
65.9466 0.718
65.9631 0.679
65.9797 0.849
65.9962 0.800
66.0128 0.915
66.0293 0.986
66.0458 1.019
66.0624 0.959
66.0789 1.145
66.0955 1.107
66.1120 1.145
66.1286 1.195
66.1451 1.326
66.1617 1.551
66.1782 1.474
66.1948 1.595
66.2113 1.929
66.2278 2.055
66.2444 2.384
66.2609 2.592
66.2775 2.668
66.2940 3.255
66.3106 3.710
66.3271 4.214
66.3437 4.614
66.3602 5.479
66.3768 6.071
66.3933 6.964
66.4098 8.214
66.4264 10.022
66.4429 10.904
66.4595 12.570
66.4760 13.896
66.4926 13.732
66.5091 13.627
66.5257 11.578
66.5422 9.814
66.5588 7.644
66.5753 6.767
66.5918 6.241
66.6084 6.312
66.6249 6.466
66.6415 7.244
66.6580 7.671
66.6746 7.359
66.6911 6.953
66.7077 6.197
66.7242 5.167
66.7408 4.055
66.7573 2.893
66.7738 2.537
66.7904 1.896
66.8069 1.803
66.8235 1.441
66.8400 1.255
66.8566 1.304
66.8731 1.068
66.8897 1.129
66.9062 1.008
66.9228 0.970
66.9393 0.942
66.9558 0.838
66.9724 0.805
66.9889 0.866
67.0055 0.712
67.0220 0.844
67.0386 0.789
67.0551 0.811
67.0717 0.816
67.0882 0.685
67.1048 0.707
67.1213 0.756
67.1378 0.685
67.1544 0.559
67.1709 0.756
67.1875 0.668
67.2040 0.756
67.2206 0.811
67.2371 0.734
67.2537 0.723
67.2702 0.625
67.2868 0.696
67.3033 0.668
67.3198 0.603
67.3364 0.619
67.3529 0.521
67.3695 0.712
67.3860 0.521
67.4026 0.696
67.4191 0.685
67.4357 0.767
67.4522 0.767
67.4688 0.734
67.4853 0.789
67.5018 0.789
67.5184 0.734
67.5349 0.805
67.5515 0.827
67.5680 0.789
67.5846 0.778
67.6011 0.882
67.6177 0.855
67.6342 0.948
67.6508 1.047
67.6673 0.942
67.6838 0.827
67.7004 1.003
67.7169 0.953
67.7335 1.189
67.7500 1.140
67.7666 1.348
67.7831 1.381
67.7997 1.496
67.8162 1.545
67.8328 1.918
67.8493 1.978
67.8658 2.219
67.8824 2.521
67.8989 2.652
67.9155 2.652
67.9320 2.942
67.9486 3.490
67.9651 3.682
67.9817 4.422
67.9982 5.216
68.0148 5.616
68.0313 6.504
68.0478 7.496
68.0644 8.915
68.0809 10.263
68.0975 11.534
68.1140 13.962
68.1306 15.907
68.1471 17.973
68.1637 19.512
68.1802 20.312
68.1968 19.375
68.2133 17.595
68.2298 14.559
68.2464 11.781
68.2629 9.929
68.2795 9.216
68.2960 8.975
68.3126 9.375
68.3291 9.611
68.3457 10.504
68.3622 10.712
68.3787 10.362
68.3953 9.715
68.4118 7.814
68.4284 6.044
68.4449 4.942
68.4615 3.529
68.4780 2.882
68.4946 2.170
68.5111 1.956
68.5277 1.677
68.5442 1.540
68.5607 1.452
68.5773 1.255
68.5938 1.151
68.6104 1.112
68.6269 1.047
68.6435 0.860
68.6600 0.915
68.6766 0.833
68.6931 0.712
68.7097 0.827
68.7262 0.773
68.7427 0.795
68.7593 0.729
68.7758 0.740
68.7924 0.734
68.8089 0.690
68.8255 0.510
68.8420 0.679
68.8586 0.625
68.8751 0.679
68.8917 0.630
68.9082 0.537
68.9247 0.603
68.9413 0.745
68.9578 0.636
68.9744 0.597
68.9909 0.526
69.0075 0.564
69.0240 0.570
69.0406 0.455
69.0571 0.592
69.0737 0.559
69.0902 0.597
69.1067 0.427
69.1233 0.564
69.1398 0.608
69.1564 0.597
69.1729 0.488
69.1895 0.619
69.2060 0.559
69.2226 0.559
69.2391 0.455
69.2557 0.488
69.2722 0.537
69.2887 0.559
69.3053 0.559
69.3218 0.405
69.3384 0.521
69.3549 0.647
69.3715 0.444
69.3880 0.433
69.4046 0.416
69.4211 0.570
69.4377 0.444
69.4542 0.493
69.4707 0.405
69.4873 0.482
69.5038 0.471
69.5204 0.482
69.5369 0.438
69.5535 0.455
69.5700 0.575
69.5866 0.493
69.6031 0.455
69.6197 0.427
69.6362 0.373
69.6527 0.548
69.6693 0.466
69.6858 0.575
69.7024 0.411
69.7189 0.466
69.7355 0.416
69.7520 0.493
69.7686 0.438
69.7851 0.471
69.8017 0.416
69.8182 0.515
69.8347 0.488
69.8513 0.504
69.8678 0.400
69.8844 0.400
69.9009 0.460
69.9175 0.449
69.9340 0.438
69.9506 0.471
69.9671 0.395
69.9837 0.504
70.0002 0.493
