'Id: "" Comment: "" Operator: "Administrator" Anode: "Cu" Scantype: "Locked Coupled" TimePerStep: "182.5" X: "0" Y: "0" Z: "0" 
20.0000 2.674
20.0165 2.570
20.0331 2.811
20.0496 2.608
20.0662 2.745
20.0827 2.674
20.0993 2.641
20.1158 2.608
20.1324 2.548
20.1489 2.795
20.1655 2.581
20.1820 2.723
20.1985 2.537
20.2151 2.696
20.2316 2.619
20.2482 2.553
20.2647 2.400
20.2813 2.515
20.2978 2.378
20.3144 2.608
20.3309 2.723
20.3475 2.614
20.3640 2.279
20.3805 2.548
20.3971 2.773
20.4136 2.592
20.4302 2.690
20.4467 2.416
20.4633 2.690
20.4798 2.636
20.4964 2.499
20.5129 2.323
20.5295 2.597
20.5460 2.548
20.5625 2.603
20.5791 2.405
20.5956 2.608
20.6122 2.690
20.6287 2.575
20.6453 2.510
20.6618 2.268
20.6784 2.838
20.6949 2.263
20.7115 2.532
20.7280 2.658
20.7445 2.548
20.7611 2.362
20.7776 2.362
20.7942 2.564
20.8107 2.351
20.8273 2.592
20.8438 2.318
20.8604 2.510
20.8769 2.510
20.8935 2.307
20.9100 2.356
20.9265 2.548
20.9431 2.395
20.9596 2.411
20.9762 2.356
20.9927 2.318
21.0093 2.373
21.0258 2.395
21.0424 2.345
21.0589 2.537
21.0755 2.334
21.0920 2.526
21.1085 2.466
21.1251 2.603
21.1416 2.471
21.1582 2.477
21.1747 2.521
21.1913 2.411
21.2078 2.729
21.2244 2.444
21.2409 2.564
21.2575 2.471
21.2740 2.422
21.2905 2.175
21.3071 2.323
21.3236 2.422
21.3402 2.356
21.3567 2.416
21.3733 2.433
21.3898 2.329
21.4064 2.471
21.4229 2.301
21.4394 2.290
21.4560 2.367
21.4725 2.515
21.4891 2.395
21.5056 2.405
21.5222 2.537
21.5387 2.482
21.5553 2.427
21.5718 2.537
21.5884 2.373
21.6049 2.351
21.6214 2.323
21.6380 2.510
21.6545 2.438
21.6711 2.373
21.6876 2.104
21.7042 2.367
21.7207 2.307
21.7373 2.400
21.7538 2.548
21.7704 2.416
21.7869 2.247
21.8034 2.203
21.8200 2.499
21.8365 2.493
21.8531 2.521
21.8696 2.274
21.8862 2.367
21.9027 2.345
21.9193 2.592
21.9358 2.438
21.9524 2.367
21.9689 2.252
21.9854 2.071
22.0020 2.296
22.0185 2.405
22.0351 2.268
22.0516 2.186
22.0682 2.126
22.0847 2.241
22.1013 2.351
22.1178 2.268
22.1344 2.290
22.1509 2.345
22.1674 2.340
22.1840 2.142
22.2005 2.274
22.2171 2.279
22.2336 2.405
22.2502 2.027
22.2667 2.197
22.2833 2.427
22.2998 2.164
22.3164 2.493
22.3329 2.219
22.3494 2.340
22.3660 2.225
22.3825 2.427
22.3991 2.175
22.4156 2.345
22.4322 2.247
22.4487 2.197
22.4653 2.367
22.4818 2.027
22.4984 2.197
22.5149 2.230
22.5314 2.236
22.5480 2.077
22.5645 2.340
22.5811 2.312
22.5976 2.274
22.6142 2.225
22.6307 2.077
22.6473 2.142
22.6638 2.093
22.6804 2.318
22.6969 2.192
22.7134 2.258
22.7300 2.153
22.7465 2.175
22.7631 2.214
22.7796 2.071
22.7962 2.159
22.8127 1.984
22.8293 2.395
22.8458 2.137
22.8624 2.164
22.8789 2.126
22.8954 2.121
22.9120 2.214
22.9285 2.230
22.9451 2.088
22.9616 2.252
22.9782 2.208
22.9947 2.132
23.0113 2.099
23.0278 2.323
23.0444 2.104
23.0609 2.126
23.0774 2.192
23.0940 2.104
23.1105 2.137
23.1271 2.110
23.1436 2.016
23.1602 2.203
23.1767 2.132
23.1933 2.011
23.2098 2.175
23.2264 2.099
23.2429 2.077
23.2594 1.934
23.2760 2.395
23.2925 2.318
23.3091 2.378
23.3256 2.066
23.3422 1.967
23.3587 2.082
23.3753 2.115
23.3918 2.082
23.4084 2.005
23.4249 2.066
23.4414 2.027
23.4580 2.088
23.4745 2.077
23.4911 1.940
23.5076 1.973
23.5242 2.104
23.5407 2.142
23.5573 2.247
23.5738 2.066
23.5904 2.121
23.6069 2.022
23.6234 1.901
23.6400 2.093
23.6565 2.214
23.6731 2.033
23.6896 2.225
23.7062 2.137
23.7227 2.071
23.7393 2.230
23.7558 2.241
23.7724 2.230
23.7889 2.148
23.8054 1.962
23.8220 2.312
23.8385 2.411
23.8551 2.252
23.8716 2.099
23.8882 2.405
23.9047 2.290
23.9213 2.230
23.9378 2.219
23.9544 2.192
23.9709 2.411
23.9874 2.416
24.0040 2.351
24.0205 2.526
24.0371 2.345
24.0536 2.493
24.0702 2.373
24.0867 2.400
24.1033 2.625
24.1198 2.592
24.1364 2.521
24.1529 2.658
24.1694 2.570
24.1860 2.510
24.2025 2.718
24.2191 2.449
24.2356 2.652
24.2522 2.685
24.2687 2.679
24.2853 2.537
24.3018 2.690
24.3183 2.362
24.3349 2.542
24.3514 2.564
24.3680 2.460
24.3845 2.373
24.4011 2.597
24.4176 2.471
24.4342 2.756
24.4507 2.893
24.4673 2.608
24.4838 2.625
24.5003 2.405
24.5169 2.795
24.5334 2.740
24.5500 2.504
24.5665 2.723
24.5831 2.712
24.5996 2.888
24.6162 2.685
24.6327 3.025
24.6493 2.915
24.6658 2.888
24.6823 2.827
24.6989 2.707
24.7154 2.745
24.7320 2.723
24.7485 2.855
24.7651 2.767
24.7816 2.778
24.7982 2.712
24.8147 2.882
24.8313 2.827
24.8478 2.833
24.8643 2.784
24.8809 2.893
24.8974 2.756
24.9140 3.074
24.9305 2.679
24.9471 2.871
24.9636 2.855
24.9802 2.789
24.9967 2.877
25.0133 2.756
25.0298 2.729
25.0463 2.756
25.0629 2.795
25.0794 2.860
25.0960 3.079
25.1125 3.019
25.1291 2.707
25.1456 2.942
25.1622 3.233
25.1787 3.211
25.1953 3.227
25.2118 3.173
25.2283 3.770
25.2449 3.507
25.2614 3.611
25.2780 4.011
25.2945 3.890
25.3111 4.378
25.3276 4.482
25.3442 5.205
25.3607 5.419
25.3773 6.104
25.3938 6.986
25.4103 8.405
25.4269 9.726
25.4434 11.879
25.4600 14.186
25.4765 18.641
25.4931 22.663
25.5096 27.814
25.5262 33.912
25.5427 36.795
25.5593 36.592
25.5758 34.915
25.5923 30.455
25.6089 26.707
25.6254 21.485
25.6420 17.616
25.6585 12.784
25.6751 9.545
25.6916 7.227
25.7082 5.748
25.7247 4.827
25.7413 4.515
25.7578 3.671
25.7743 3.627
25.7909 3.348
25.8074 3.195
25.8240 2.860
25.8405 2.932
25.8571 2.877
25.8736 2.811
25.8902 2.636
25.9067 2.647
25.9233 2.893
25.9398 2.575
25.9563 2.411
25.9729 2.734
25.9894 2.411
26.0060 2.307
26.0225 2.274
26.0391 2.345
26.0556 2.493
26.0722 2.296
26.0887 2.290
26.1053 2.203
26.1218 2.449
26.1383 2.389
26.1549 2.526
26.1714 2.400
26.1880 2.274
26.2045 2.542
26.2211 2.301
26.2376 2.258
26.2542 2.296
26.2707 2.290
26.2873 2.175
26.3038 2.175
26.3203 2.279
26.3369 2.477
26.3534 2.411
26.3700 2.170
26.3865 2.175
26.4031 2.219
26.4196 2.405
26.4362 2.274
26.4527 2.236
26.4693 2.197
26.4858 2.192
26.5023 2.318
26.5189 2.230
26.5354 2.225
26.5520 2.137
26.5685 2.132
26.5851 2.044
26.6016 2.159
26.6182 2.148
26.6347 2.203
26.6513 2.071
26.6678 2.110
26.6843 2.104
26.7009 2.132
26.7174 2.263
26.7340 2.214
26.7505 1.995
26.7671 1.918
26.7836 2.104
26.8002 2.186
26.8167 2.055
26.8333 2.088
26.8498 2.142
26.8663 2.060
26.8829 1.967
26.8994 2.164
26.9160 1.978
26.9325 1.841
26.9491 2.142
26.9656 2.016
26.9822 2.181
26.9987 2.104
27.0152 2.027
27.0318 1.951
27.0483 2.142
27.0649 2.005
27.0814 1.967
27.0980 1.896
27.1145 1.962
27.1311 2.033
27.1476 1.841
27.1642 2.027
27.1807 1.995
27.1972 1.989
27.2138 1.814
27.2303 1.962
27.2469 2.005
27.2634 2.153
27.2800 2.055
27.2965 1.956
27.3131 2.027
27.3296 1.951
27.3462 1.863
27.3627 2.077
27.3792 2.115
27.3958 2.088
27.4123 1.907
27.4289 2.022
27.4454 2.093
27.4620 2.000
27.4785 1.923
27.4951 1.907
27.5116 1.819
27.5282 1.879
27.5447 2.033
27.5612 2.005
27.5778 1.814
27.5943 1.715
27.6109 1.984
27.6274 1.945
27.6440 1.841
27.6605 1.978
27.6771 1.814
27.6936 1.775
27.7102 1.907
27.7267 1.830
27.7432 1.973
27.7598 1.907
27.7763 1.803
27.7929 1.710
27.8094 1.781
27.8260 1.836
27.8425 1.710
27.8591 1.901
27.8756 1.951
27.8922 1.923
27.9087 1.940
27.9252 2.110
27.9418 1.852
27.9583 1.715
27.9749 1.808
27.9914 1.885
28.0080 1.907
28.0245 1.879
28.0411 1.912
28.0576 1.836
28.0742 1.874
28.0907 1.929
28.1072 1.693
28.1238 1.808
28.1403 1.721
28.1569 1.912
28.1734 1.863
28.1900 1.688
28.2065 1.578
28.2231 1.699
28.2396 1.512
28.2562 1.819
28.2727 1.721
28.2892 1.874
28.3058 1.710
28.3223 1.693
28.3389 1.666
28.3554 1.797
28.3720 1.704
28.3885 1.655
28.4051 1.721
28.4216 1.847
28.4382 1.573
28.4547 1.627
28.4712 1.726
28.4878 1.699
28.5043 1.622
28.5209 1.638
28.5374 1.414
28.5540 1.644
28.5705 1.490
28.5871 1.677
28.6036 1.638
28.6202 1.562
28.6367 1.523
28.6532 1.562
28.6698 1.463
28.6863 1.600
28.7029 1.518
28.7194 1.611
28.7360 1.501
28.7525 1.584
28.7691 1.441
28.7856 1.611
28.8022 1.770
28.8187 1.627
28.8352 1.567
28.8518 1.501
28.8683 1.468
28.8849 1.490
28.9014 1.671
28.9180 1.649
28.9345 1.562
28.9511 1.655
28.9676 1.578
28.9842 1.562
29.0007 1.688
29.0172 1.589
29.0338 1.501
29.0503 1.567
29.0669 1.562
29.0834 1.567
29.1000 1.534
29.1165 1.375
29.1331 1.414
29.1496 1.562
29.1662 1.468
29.1827 1.485
29.1992 1.441
29.2158 1.408
29.2323 1.677
29.2489 1.518
29.2654 1.507
29.2820 1.567
29.2985 1.463
29.3151 1.496
29.3316 1.507
29.3482 1.381
29.3647 1.474
29.3812 1.545
29.3978 1.584
29.4143 1.430
29.4309 1.474
29.4474 1.551
29.4640 1.562
29.4805 1.562
29.4971 1.781
29.5136 1.447
29.5302 1.523
29.5467 1.485
29.5632 1.485
29.5798 1.518
29.5963 1.430
29.6129 1.436
29.6294 1.485
29.6460 1.392
29.6625 1.600
29.6791 1.375
29.6956 1.342
29.7121 1.277
29.7287 1.233
29.7452 1.496
29.7618 1.622
29.7783 1.518
29.7949 1.408
29.8114 1.518
29.8280 1.430
29.8445 1.452
29.8611 1.463
29.8776 1.277
29.8941 1.441
29.9107 1.408
29.9272 1.408
29.9438 1.556
29.9603 1.310
29.9769 1.447
29.9934 1.293
30.0100 1.419
30.0265 1.447
30.0431 1.518
30.0596 1.425
30.0761 1.381
30.0927 1.321
30.1092 1.408
30.1258 1.282
30.1423 1.348
30.1589 1.479
30.1754 1.660
30.1920 1.474
30.2085 1.397
30.2251 1.315
30.2416 1.452
30.2581 1.392
30.2747 1.353
30.2912 1.447
30.3078 1.408
30.3243 1.408
30.3409 1.299
30.3574 1.375
30.3740 1.392
30.3905 1.222
30.4071 1.266
30.4236 1.386
30.4401 1.463
30.4567 1.501
30.4732 1.304
30.4898 1.545
30.5063 1.392
30.5229 1.458
30.5394 1.249
30.5560 1.375
30.5725 1.501
30.5891 1.216
30.6056 1.403
30.6221 1.353
30.6387 1.282
30.6552 1.364
30.6718 1.216
30.6883 1.216
30.7049 1.244
30.7214 1.337
30.7380 1.359
30.7545 1.277
30.7711 1.211
30.7876 1.403
30.8041 1.436
30.8207 1.233
30.8372 1.249
30.8538 1.299
30.8703 1.436
30.8869 1.255
30.9034 1.282
30.9200 1.321
30.9365 1.293
30.9531 1.337
30.9696 1.151
30.9861 1.288
31.0027 1.205
31.0192 1.288
31.0358 1.118
31.0523 1.266
31.0689 1.200
31.0854 1.233
31.1020 1.299
31.1185 1.222
31.1351 1.282
31.1516 1.359
31.1681 1.332
31.1847 1.375
31.2012 1.156
31.2178 1.370
31.2343 1.337
31.2509 1.299
31.2674 1.255
31.2840 1.364
31.3005 1.244
31.3171 1.321
31.3336 1.244
31.3501 1.167
31.3667 1.173
31.3832 1.085
31.3998 1.381
31.4163 1.332
31.4329 1.277
31.4494 1.227
31.4660 1.222
31.4825 1.288
31.4991 1.310
31.5156 1.255
31.5321 1.386
31.5487 1.364
31.5652 1.233
31.5818 1.304
31.5983 1.293
31.6149 1.173
31.6314 1.315
31.6480 1.189
31.6645 1.299
31.6811 1.266
31.6976 1.216
31.7141 1.260
31.7307 1.184
31.7472 1.189
31.7638 1.123
31.7803 1.238
31.7969 1.211
31.8134 1.337
31.8300 1.134
31.8465 1.277
31.8631 1.167
31.8796 1.090
31.8961 1.227
31.9127 1.167
31.9292 1.200
31.9458 1.408
31.9623 1.222
31.9789 1.162
31.9954 1.025
32.0120 1.184
32.0285 1.118
32.0451 1.222
32.0616 1.195
32.0781 1.178
32.0947 1.096
32.1112 1.101
32.1278 1.134
32.1443 1.173
32.1609 1.101
32.1774 1.271
32.1940 1.178
32.2105 1.063
32.2271 1.118
32.2436 1.299
32.2601 1.107
32.2767 1.074
32.2932 1.019
32.3098 1.255
32.3263 1.195
32.3429 1.227
32.3594 1.162
32.3760 1.200
32.3925 1.255
32.4091 1.129
32.4256 1.112
32.4421 1.167
32.4587 1.068
32.4752 1.118
32.4918 1.090
32.5083 1.162
32.5249 0.959
32.5414 1.052
32.5580 1.118
32.5745 1.079
32.5910 1.145
32.6076 1.079
32.6241 1.216
32.6407 1.140
32.6572 1.058
32.6738 1.189
32.6903 1.030
32.7069 1.068
32.7234 1.052
32.7400 1.052
32.7565 1.041
32.7730 1.134
32.7896 1.266
32.8061 1.123
32.8227 1.134
32.8392 1.156
32.8558 1.058
32.8723 1.058
32.8889 1.134
32.9054 1.036
32.9220 1.041
32.9385 1.140
32.9550 1.085
32.9716 1.025
32.9881 1.107
33.0047 1.145
33.0212 1.195
33.0378 1.052
33.0543 1.085
33.0709 1.156
33.0874 1.068
33.1040 1.063
33.1205 1.151
33.1370 1.244
33.1536 1.058
33.1701 1.074
33.1867 1.085
33.2032 1.134
33.2198 1.096
33.2363 1.156
33.2529 1.123
33.2694 0.937
33.2860 1.112
33.3025 1.112
33.3190 1.129
33.3356 1.008
33.3521 0.997
33.3687 1.008
33.3852 1.090
33.4018 1.025
33.4183 1.129
33.4349 1.079
33.4514 1.118
33.4680 1.101
33.4845 1.145
33.5010 1.068
33.5176 1.107
33.5341 1.090
33.5507 1.014
33.5672 1.238
33.5838 1.134
33.6003 1.085
33.6169 1.101
33.6334 1.008
33.6500 1.162
33.6665 1.079
33.6830 1.156
33.6996 1.014
33.7161 1.096
33.7327 1.195
33.7492 1.008
33.7658 0.986
33.7823 1.134
33.7989 1.200
33.8154 1.101
33.8320 1.096
33.8485 1.090
33.8650 1.222
33.8816 1.293
33.8981 1.299
33.9147 1.326
33.9312 1.260
33.9478 1.288
33.9643 1.107
33.9809 1.359
33.9974 1.266
34.0140 1.249
34.0305 1.222
34.0470 1.310
34.0636 1.129
34.0801 1.090
34.0967 1.277
34.1132 1.315
34.1298 1.293
34.1463 1.282
34.1629 1.304
34.1794 1.364
34.1960 1.447
34.2125 1.255
34.2290 1.326
34.2456 1.364
34.2621 1.249
34.2787 1.200
34.2952 1.485
34.3118 1.353
34.3283 1.332
34.3449 1.282
34.3614 1.342
34.3780 1.101
34.3945 1.408
34.4110 1.386
34.4276 1.299
34.4441 1.260
34.4607 1.326
34.4772 1.425
34.4938 1.452
34.5103 1.518
34.5269 1.600
34.5434 1.479
34.5600 1.710
34.5765 1.408
34.5930 1.529
34.6096 1.501
34.6261 1.677
34.6427 1.688
34.6592 1.896
34.6758 1.825
34.6923 1.808
34.7089 1.956
34.7254 2.104
34.7420 2.060
34.7585 2.504
34.7750 2.553
34.7916 2.805
34.8081 3.036
34.8247 3.195
34.8412 3.934
34.8578 4.170
34.8743 4.723
34.8909 5.474
34.9074 5.989
34.9240 7.074
34.9405 8.153
34.9570 9.353
34.9736 11.085
34.9901 13.244
35.0067 17.014
35.0232 20.762
35.0398 25.710
35.0563 31.814
35.0729 38.959
35.0894 44.268
35.1060 48.811
35.1225 47.419
35.1390 44.312
35.1556 38.230
35.1721 33.879
35.1887 30.071
35.2052 27.682
35.2218 22.493
35.2383 16.910
35.2549 12.203
35.2714 8.997
35.2879 6.455
35.3045 5.145
35.3210 4.241
35.3376 3.386
35.3541 3.271
35.3707 2.723
35.3872 2.636
35.4038 2.312
35.4203 2.258
35.4369 2.027
35.4534 2.005
35.4699 1.819
35.4865 1.726
35.5030 1.775
35.5196 1.863
35.5361 1.682
35.5527 1.562
35.5692 1.578
35.5858 1.562
35.6023 1.408
35.6189 1.611
35.6354 1.507
35.6519 1.332
35.6685 1.260
35.6850 1.403
35.7016 1.353
35.7181 1.490
35.7347 1.359
35.7512 1.195
35.7678 1.310
35.7843 1.140
35.8009 1.222
35.8174 1.414
35.8339 1.332
35.8505 1.392
35.8670 1.151
35.8836 1.216
35.9001 1.211
35.9167 1.162
35.9332 1.238
35.9498 1.047
35.9663 1.277
35.9829 1.184
35.9994 1.019
36.0159 1.238
36.0325 1.342
36.0490 1.178
36.0656 1.030
36.0821 1.205
36.0987 1.041
36.1152 1.030
36.1318 1.211
36.1483 1.074
36.1649 1.140
36.1814 1.184
36.1979 1.173
36.2145 1.063
36.2310 1.145
36.2476 1.216
36.2641 1.096
36.2807 1.036
36.2972 1.008
36.3138 1.041
36.3303 1.129
36.3469 1.244
36.3634 1.178
36.3799 1.162
36.3965 1.036
36.4130 1.014
36.4296 1.266
36.4461 1.041
36.4627 1.211
36.4792 1.112
36.4958 1.145
36.5123 1.129
36.5289 0.997
36.5454 1.195
36.5619 1.085
36.5785 1.184
36.5950 1.145
36.6116 1.085
36.6281 1.030
36.6447 1.145
36.6612 1.068
36.6778 1.107
36.6943 1.074
36.7109 1.167
36.7274 1.167
36.7439 1.047
36.7605 1.178
36.7770 1.096
36.7936 1.249
36.8101 1.184
36.8267 1.167
36.8432 1.118
36.8598 0.959
36.8763 1.129
36.8929 1.096
36.9094 1.047
36.9259 1.195
36.9425 1.162
36.9590 1.085
36.9756 1.079
36.9921 1.085
37.0087 1.348
37.0252 1.266
37.0418 1.058
37.0583 1.216
37.0749 1.162
37.0914 1.151
37.1079 1.173
37.1245 1.036
37.1410 1.233
37.1576 1.184
37.1741 1.238
37.1907 1.151
37.2072 1.200
37.2238 1.249
37.2403 1.184
37.2569 1.216
37.2734 1.227
37.2899 1.310
37.3065 1.458
37.3230 1.458
37.3396 1.386
37.3561 1.479
37.3727 1.408
37.3892 1.611
37.4058 1.403
37.4223 1.753
37.4389 1.753
37.4554 1.989
37.4719 2.071
37.4885 2.340
37.5050 2.647
37.5216 2.729
37.5381 3.178
37.5547 3.770
37.5712 4.378
37.5878 4.712
37.6043 5.392
37.6209 6.422
37.6374 7.786
37.6539 9.551
37.6705 11.633
37.6870 13.863
37.7036 16.559
37.7201 18.992
37.7367 19.523
37.7532 19.041
37.7698 16.932
37.7863 14.723
37.8029 12.647
37.8194 11.907
37.8359 11.485
37.8525 9.830
37.8690 7.770
37.8856 5.523
37.9021 4.208
37.9187 3.014
37.9352 2.471
37.9518 2.077
37.9683 1.995
37.9848 1.732
38.0014 1.786
38.0179 1.595
38.0345 1.452
38.0510 1.551
38.0676 1.501
38.0841 1.353
38.1007 1.162
38.1172 1.403
38.1338 1.189
38.1503 1.277
38.1668 1.173
38.1834 1.249
38.1999 1.162
38.2165 1.304
38.2330 1.101
38.2496 1.134
38.2661 1.079
38.2827 1.118
38.2992 1.162
38.3158 0.992
38.3323 1.129
38.3488 1.079
38.3654 1.107
38.3819 1.019
38.3985 1.025
38.4150 1.107
38.4316 1.107
38.4481 1.025
38.4647 0.986
38.4812 0.942
38.4978 1.036
38.5143 0.953
38.5308 1.008
38.5474 1.052
38.5639 1.036
38.5805 0.975
38.5970 0.997
38.6136 0.981
38.6301 0.953
38.6467 1.079
38.6632 0.953
38.6798 0.877
38.6963 0.953
38.7128 0.899
38.7294 0.953
38.7459 1.074
38.7625 0.986
38.7790 0.937
38.7956 0.921
38.8121 0.910
38.8287 1.074
38.8452 0.910
38.8618 1.008
38.8783 1.041
38.8948 0.860
38.9114 1.118
38.9279 0.948
38.9445 1.178
38.9610 0.997
38.9776 1.167
38.9941 0.964
39.0107 0.932
39.0272 1.052
39.0438 0.899
39.0603 0.800
39.0768 0.926
39.0934 0.844
39.1099 0.773
39.1265 0.849
39.1430 0.866
39.1596 0.860
39.1761 0.893
39.1927 1.025
39.2092 1.036
39.2258 0.986
39.2423 1.014
39.2588 0.937
39.2754 0.948
39.2919 0.959
39.3085 0.811
39.3250 1.003
39.3416 0.849
39.3581 0.789
39.3747 0.849
39.3912 0.827
39.4078 0.904
39.4243 0.712
39.4408 0.816
39.4574 0.904
39.4739 1.025
39.4905 0.915
39.5070 0.866
39.5236 0.800
39.5401 0.855
39.5567 0.893
39.5732 0.959
39.5898 0.937
39.6063 0.959
39.6228 0.789
39.6394 0.932
39.6559 1.014
39.6725 0.844
39.6890 0.866
39.7056 0.953
39.7221 0.822
39.7387 0.723
39.7552 0.838
39.7718 0.795
39.7883 0.855
39.8048 0.888
39.8214 0.888
39.8379 0.910
39.8545 0.899
39.8710 0.816
39.8876 0.855
39.9041 0.767
39.9207 0.811
39.9372 0.762
39.9538 0.882
39.9703 0.849
39.9868 0.997
40.0034 0.822
40.0199 0.910
40.0365 0.734
40.0530 0.948
40.0696 0.921
40.0861 0.844
40.1027 0.964
40.1192 0.729
40.1358 0.860
40.1523 0.838
40.1688 0.647
40.1854 0.833
40.2019 0.707
40.2185 0.729
40.2350 0.953
40.2516 0.838
40.2681 0.926
40.2847 0.899
40.3012 0.860
40.3178 0.893
40.3343 0.822
40.3508 0.833
40.3674 0.904
40.3839 0.762
40.4005 0.805
40.4170 0.844
40.4336 0.975
40.4501 0.767
40.4667 0.833
40.4832 0.701
40.4998 0.811
40.5163 0.921
40.5328 0.773
40.5494 0.932
40.5659 0.871
40.5825 0.855
40.5990 0.795
40.6156 0.860
40.6321 0.866
40.6487 0.822
40.6652 0.904
40.6818 0.899
40.6983 0.849
40.7148 0.822
40.7314 0.888
40.7479 1.063
40.7645 0.899
40.7810 0.784
40.7976 0.877
40.8141 0.942
40.8307 0.718
40.8472 0.849
40.8637 0.877
40.8803 0.767
40.8968 0.729
40.9134 0.767
40.9299 0.827
40.9465 0.871
40.9630 0.712
40.9796 0.805
40.9961 0.795
41.0127 0.860
41.0292 0.855
41.0457 0.805
41.0623 0.849
41.0788 0.822
41.0954 0.784
41.1119 0.871
41.1285 0.871
41.1450 0.767
41.1616 0.992
41.1781 0.762
41.1947 0.866
41.2112 0.915
41.2277 0.784
41.2443 0.762
41.2608 0.822
41.2774 0.811
41.2939 0.877
41.3105 0.822
41.3270 0.860
41.3436 0.811
41.3601 0.800
41.3767 0.855
41.3932 0.756
41.4097 0.784
41.4263 0.762
41.4428 0.888
41.4594 0.932
41.4759 1.008
41.4925 0.992
41.5090 0.915
41.5256 0.849
41.5421 0.970
41.5587 1.052
41.5752 1.173
41.5917 1.129
41.6083 1.189
41.6248 1.238
41.6414 1.216
41.6579 1.304
41.6745 1.271
41.6910 1.310
41.7076 1.189
41.7241 1.266
41.7407 1.085
41.7572 1.030
41.7737 1.288
41.7903 1.052
41.8068 1.096
41.8234 1.025
41.8399 1.129
41.8565 1.019
41.8730 0.953
41.8896 0.888
41.9061 0.932
41.9227 1.014
41.9392 0.915
41.9557 1.008
41.9723 1.096
41.9888 0.964
42.0054 1.019
42.0219 1.162
42.0385 0.871
42.0550 0.986
42.0716 1.025
42.0881 0.844
42.1047 0.992
42.1212 0.992
42.1377 0.937
42.1543 0.915
42.1708 1.167
42.1874 0.893
42.2039 0.975
42.2205 0.942
42.2370 0.975
42.2536 1.189
42.2701 0.827
42.2867 0.986
42.3032 1.096
42.3197 0.948
42.3363 1.063
42.3528 1.058
42.3694 1.145
42.3859 1.184
42.4025 0.959
42.4190 0.970
42.4356 1.140
42.4521 1.101
42.4687 1.052
42.4852 1.112
42.5017 1.068
42.5183 1.003
42.5348 1.074
42.5514 0.992
42.5679 1.129
42.5845 1.107
42.6010 1.145
42.6176 1.047
42.6341 0.959
42.6507 1.129
42.6672 1.249
42.6837 1.162
42.7003 1.271
42.7168 1.332
42.7334 1.200
42.7499 1.392
42.7665 1.293
42.7830 1.216
42.7996 1.600
42.8161 1.447
42.8327 1.512
42.8492 1.545
42.8657 1.693
42.8823 1.803
42.8988 1.967
42.9154 2.148
42.9319 2.268
42.9485 2.537
42.9650 2.647
42.9816 2.921
42.9981 3.184
43.0147 3.847
43.0312 3.814
43.0477 4.471
43.0643 5.162
43.0808 5.978
43.0974 6.904
43.1139 7.501
43.1305 9.184
43.1470 10.904
43.1636 11.940
43.1801 14.975
43.1967 17.425
43.2132 21.244
43.2297 26.153
43.2463 31.490
43.2628 38.022
43.2794 43.945
43.2959 48.077
43.3125 47.874
43.3290 44.142
43.3456 38.548
43.3621 31.030
43.3787 29.742
43.3952 27.660
43.4117 27.337
43.4283 23.868
43.4448 20.340
43.4614 14.942
43.4779 11.271
43.4945 7.775
43.5110 5.770
43.5276 4.493
43.5441 3.989
43.5606 3.156
43.5772 2.942
43.5937 2.630
43.6103 2.367
43.6268 1.918
43.6434 1.825
43.6599 1.885
43.6765 1.507
43.6930 1.567
43.7096 1.403
43.7261 1.523
43.7426 1.370
43.7592 1.386
43.7757 1.326
43.7923 1.288
43.8088 1.370
43.8254 1.200
43.8419 1.189
43.8585 1.184
43.8750 1.123
43.8916 1.090
43.9081 1.058
43.9246 1.134
43.9412 1.030
43.9577 1.025
43.9743 1.178
43.9908 0.953
44.0074 0.970
44.0239 0.932
44.0405 0.926
44.0570 0.948
44.0736 0.838
44.0901 0.904
44.1066 0.932
44.1232 0.948
44.1397 0.959
44.1563 0.910
44.1728 0.942
44.1894 0.975
44.2059 0.877
44.2225 0.844
44.2390 0.904
44.2556 0.926
44.2721 0.871
44.2886 0.844
44.3052 0.899
44.3217 0.932
44.3383 0.871
44.3548 0.816
44.3714 0.893
44.3879 0.904
44.4045 0.740
44.4210 0.729
44.4376 0.778
44.4541 0.838
44.4706 0.816
44.4872 0.877
44.5037 0.915
44.5203 0.690
44.5368 0.910
44.5534 0.871
44.5699 0.926
44.5865 0.904
44.6030 0.789
44.6196 0.767
44.6361 0.822
44.6526 1.063
44.6692 0.860
44.6857 0.888
44.7023 0.855
44.7188 0.882
44.7354 0.816
44.7519 0.942
44.7685 0.937
44.7850 0.849
44.8016 0.822
44.8181 0.871
44.8346 0.899
44.8512 0.729
44.8677 0.696
44.8843 0.877
44.9008 0.871
44.9174 0.855
44.9339 0.789
44.9505 0.630
44.9670 0.745
44.9836 0.734
45.0001 0.795
45.0166 0.805
45.0332 0.740
45.0497 0.805
45.0663 0.734
45.0828 0.723
45.0994 0.701
45.1159 0.926
45.1325 0.800
45.1490 0.784
45.1656 0.816
45.1821 0.773
45.1986 0.745
45.2152 0.778
45.2317 0.762
45.2483 0.668
45.2648 0.866
45.2814 0.740
45.2979 0.849
45.3145 0.756
45.3310 0.822
45.3476 0.767
45.3641 0.866
45.3806 0.740
45.3972 0.756
45.4137 0.751
45.4303 0.723
45.4468 0.767
45.4634 0.773
45.4799 0.778
45.4965 0.696
45.5130 0.849
45.5296 0.751
45.5461 0.712
45.5626 0.827
45.5792 0.816
45.5957 0.674
45.6123 0.844
45.6288 0.805
45.6454 0.690
45.6619 0.795
45.6785 0.668
45.6950 0.718
45.7116 0.641
45.7281 0.778
45.7446 0.690
45.7612 0.849
45.7777 0.838
45.7943 0.784
45.8108 0.893
45.8274 0.740
45.8439 0.805
45.8605 0.707
45.8770 0.734
45.8936 0.712
45.9101 0.773
45.9266 0.795
45.9432 0.844
45.9597 0.959
45.9763 0.866
45.9928 0.756
46.0094 0.789
46.0259 0.921
46.0425 0.899
46.0590 0.921
46.0756 1.058
46.0921 1.178
46.1086 1.370
46.1252 1.151
46.1417 1.282
46.1583 1.173
46.1748 0.942
46.1914 1.008
46.2079 1.173
46.2245 1.041
46.2410 1.079
46.2575 1.112
46.2741 0.882
46.2906 0.942
46.3072 0.811
46.3237 0.805
46.3403 0.822
46.3568 0.740
46.3734 0.789
46.3899 0.773
46.4065 0.674
46.4230 0.674
46.4395 0.734
46.4561 0.685
46.4726 0.718
46.4892 0.668
46.5057 0.723
46.5223 0.822
46.5388 0.679
46.5554 0.663
46.5719 0.707
46.5885 0.701
46.6050 0.641
46.6215 0.718
46.6381 0.625
46.6546 0.734
46.6712 0.789
46.6877 0.668
46.7043 0.712
46.7208 0.712
46.7374 0.636
46.7539 0.811
46.7705 0.690
46.7870 0.619
46.8035 0.701
46.8201 0.658
46.8366 0.668
46.8532 0.707
46.8697 0.701
46.8863 0.630
46.9028 0.734
46.9194 0.597
46.9359 0.712
46.9525 0.674
46.9690 0.701
46.9855 0.679
47.0021 0.663
47.0186 0.707
47.0352 0.784
47.0517 0.707
47.0683 0.751
47.0848 0.690
47.1014 0.712
47.1179 0.696
47.1345 0.663
47.1510 0.696
47.1675 0.663
47.1841 0.723
47.2006 0.762
47.2172 0.696
47.2337 0.701
47.2503 0.745
47.2668 0.778
47.2834 0.723
47.2999 0.625
47.3165 0.570
47.3330 0.690
47.3495 0.575
47.3661 0.663
47.3826 0.652
47.3992 0.668
47.4157 0.701
47.4323 0.641
47.4488 0.701
47.4654 0.581
47.4819 0.685
47.4985 0.647
47.5150 0.718
47.5315 0.652
47.5481 0.575
47.5646 0.723
47.5812 0.647
47.5977 0.668
47.6143 0.636
47.6308 0.652
47.6474 0.696
47.6639 0.636
47.6805 0.663
47.6970 0.674
47.7135 0.647
47.7301 0.504
47.7466 0.603
47.7632 0.482
47.7797 0.515
47.7963 0.679
47.8128 0.668
47.8294 0.674
47.8459 0.608
47.8625 0.668
47.8790 0.751
47.8955 0.712
47.9121 0.658
47.9286 0.712
47.9452 0.619
47.9617 0.542
47.9783 0.564
47.9948 0.778
48.0114 0.608
48.0279 0.630
48.0445 0.663
48.0610 0.674
48.0775 0.597
48.0941 0.663
48.1106 0.734
48.1272 0.575
48.1437 0.679
48.1603 0.690
48.1768 0.658
48.1934 0.614
48.2099 0.636
48.2265 0.608
48.2430 0.641
48.2595 0.570
48.2761 0.537
48.2926 0.537
48.3092 0.641
48.3257 0.668
48.3423 0.647
48.3588 0.630
48.3754 0.597
48.3919 0.581
48.4085 0.701
48.4250 0.608
48.4415 0.471
48.4581 0.532
48.4746 0.630
48.4912 0.723
48.5077 0.712
48.5243 0.608
48.5408 0.510
48.5574 0.614
48.5739 0.608
48.5905 0.652
48.6070 0.696
48.6235 0.542
48.6401 0.625
48.6566 0.559
48.6732 0.581
48.6897 0.564
48.7063 0.630
48.7228 0.668
48.7394 0.603
48.7559 0.663
48.7725 0.542
48.7890 0.548
48.8055 0.586
48.8221 0.575
48.8386 0.647
48.8552 0.586
48.8717 0.712
48.8883 0.603
48.9048 0.614
48.9214 0.614
48.9379 0.608
48.9545 0.641
48.9710 0.630
48.9875 0.592
49.0041 0.625
49.0206 0.668
49.0372 0.625
49.0537 0.597
49.0703 0.466
49.0868 0.597
49.1034 0.647
49.1199 0.690
49.1364 0.532
49.1530 0.564
49.1695 0.685
49.1861 0.586
49.2026 0.608
49.2192 0.630
49.2357 0.592
49.2523 0.608
49.2688 0.718
49.2854 0.559
49.3019 0.575
49.3184 0.597
49.3350 0.597
49.3515 0.499
49.3681 0.592
49.3846 0.559
49.4012 0.636
49.4177 0.663
49.4343 0.570
49.4508 0.608
49.4674 0.614
49.4839 0.603
49.5004 0.603
49.5170 0.597
49.5335 0.668
49.5501 0.515
49.5666 0.608
49.5832 0.636
49.5997 0.592
49.6163 0.499
49.6328 0.630
49.6494 0.597
49.6659 0.608
49.6824 0.537
49.6990 0.564
49.7155 0.488
49.7321 0.603
49.7486 0.521
49.7652 0.597
49.7817 0.625
49.7983 0.559
49.8148 0.499
49.8314 0.548
49.8479 0.625
49.8644 0.630
49.8810 0.603
49.8975 0.597
49.9141 0.592
49.9306 0.636
49.9472 0.581
49.9637 0.663
49.9803 0.564
49.9968 0.499
50.0134 0.564
50.0299 0.532
50.0464 0.592
50.0630 0.537
50.0795 0.630
50.0961 0.581
50.1126 0.608
50.1292 0.581
50.1457 0.608
50.1623 0.575
50.1788 0.553
50.1954 0.647
50.2119 0.548
50.2284 0.548
50.2450 0.603
50.2615 0.652
50.2781 0.658
50.2946 0.630
50.3112 0.526
50.3277 0.636
50.3443 0.515
50.3608 0.608
50.3774 0.652
50.3939 0.548
50.4104 0.603
50.4270 0.668
50.4435 0.608
50.4601 0.521
50.4766 0.537
50.4932 0.685
50.5097 0.614
50.5263 0.575
50.5428 0.630
50.5594 0.603
50.5759 0.701
50.5924 0.608
50.6090 0.564
50.6255 0.564
50.6421 0.559
50.6586 0.636
50.6752 0.778
50.6917 0.592
50.7083 0.718
50.7248 0.608
50.7414 0.701
50.7579 0.619
50.7744 0.614
50.7910 0.690
50.8075 0.532
50.8241 0.641
50.8406 0.532
50.8572 0.663
50.8737 0.647
50.8903 0.647
50.9068 0.663
50.9234 0.647
50.9399 0.614
50.9564 0.630
50.9730 0.625
50.9895 0.581
51.0061 0.630
51.0226 0.619
51.0392 0.586
51.0557 0.581
51.0723 0.767
51.0888 0.581
51.1054 0.658
51.1219 0.641
51.1384 0.586
51.1550 0.696
51.1715 0.778
51.1881 0.723
51.2046 0.630
51.2212 0.614
51.2377 0.652
51.2543 0.647
51.2708 0.690
51.2874 0.712
51.3039 0.718
51.3204 0.668
51.3370 0.751
51.3535 0.729
51.3701 0.729
51.3866 0.690
51.4032 0.696
51.4197 0.789
51.4363 0.778
51.4528 0.800
51.4694 0.811
51.4859 0.740
51.5024 0.762
51.5190 0.778
51.5355 0.630
51.5521 0.712
51.5686 0.630
51.5852 0.641
51.6017 0.685
51.6183 0.685
51.6348 0.663
51.6514 0.690
51.6679 0.745
51.6844 0.740
51.7010 0.685
51.7175 0.685
51.7341 0.647
51.7506 0.866
51.7672 0.696
51.7837 0.877
51.8003 0.685
51.8168 0.822
51.8333 0.816
51.8499 0.734
51.8664 0.795
51.8830 0.773
51.8995 0.718
51.9161 0.707
51.9326 0.674
51.9492 0.882
51.9657 0.899
51.9823 0.866
51.9988 0.992
52.0153 0.904
52.0319 1.145
52.0484 0.992
52.0650 1.107
52.0815 1.134
52.0981 1.364
52.1146 1.282
52.1312 1.578
52.1477 1.545
52.1643 1.879
52.1808 1.808
52.1973 2.219
52.2139 2.285
52.2304 2.389
52.2470 2.729
52.2635 3.090
52.2801 3.595
52.2966 3.836
52.3132 4.449
52.3297 5.255
52.3463 6.071
52.3628 7.058
52.3793 8.285
52.3959 10.132
52.4124 11.759
52.4290 14.088
52.4455 15.693
52.4621 18.849
52.4786 20.088
52.4952 20.104
52.5117 18.767
52.5283 16.121
52.5448 13.025
52.5613 11.326
52.5779 10.674
52.5944 10.860
52.6110 11.079
52.6275 10.290
52.6441 9.660
52.6606 8.438
52.6772 6.307
52.6937 4.526
52.7103 3.512
52.7268 2.559
52.7433 2.290
52.7599 1.885
52.7764 1.600
52.7930 1.447
52.8095 1.419
52.8261 1.266
52.8426 1.074
52.8592 1.321
52.8757 0.926
52.8923 1.112
52.9088 1.118
52.9253 0.910
52.9419 0.838
52.9584 0.888
52.9750 0.904
52.9915 0.816
53.0081 0.723
53.0246 0.701
53.0412 0.756
53.0577 0.844
53.0743 0.718
53.0908 0.767
53.1073 0.685
53.1239 0.696
53.1404 0.685
53.1570 0.679
53.1735 0.597
53.1901 0.674
53.2066 0.625
53.2232 0.751
53.2397 0.701
53.2563 0.696
53.2728 0.630
53.2893 0.630
53.3059 0.679
53.3224 0.696
53.3390 0.685
53.3555 0.603
53.3721 0.723
53.3886 0.745
53.4052 0.515
53.4217 0.625
53.4383 0.707
53.4548 0.542
53.4713 0.647
53.4879 0.663
53.5044 0.641
53.5210 0.592
53.5375 0.652
53.5541 0.526
53.5706 0.712
53.5872 0.603
53.6037 0.477
53.6203 0.636
53.6368 0.636
53.6533 0.630
53.6699 0.586
53.6864 0.603
53.7030 0.575
53.7195 0.696
53.7361 0.575
53.7526 0.630
53.7692 0.625
53.7857 0.597
53.8023 0.619
53.8188 0.603
53.8353 0.614
53.8519 0.614
53.8684 0.658
53.8850 0.641
53.9015 0.636
53.9181 0.630
53.9346 0.537
53.9512 0.668
53.9677 0.553
53.9843 0.542
54.0008 0.696
54.0173 0.477
54.0339 0.603
54.0504 0.438
54.0670 0.641
54.0835 0.674
54.1001 0.504
54.1166 0.477
54.1332 0.652
54.1497 0.521
54.1663 0.553
54.1828 0.663
54.1993 0.614
54.2159 0.592
54.2324 0.581
54.2490 0.537
54.2655 0.575
54.2821 0.564
54.2986 0.658
54.3152 0.526
54.3317 0.455
54.3483 0.521
54.3648 0.542
54.3813 0.586
54.3979 0.542
54.4144 0.575
54.4310 0.564
54.4475 0.592
54.4641 0.586
54.4806 0.658
54.4972 0.548
54.5137 0.466
54.5302 0.515
54.5468 0.559
54.5633 0.455
54.5799 0.455
54.5964 0.575
54.6130 0.548
54.6295 0.564
54.6461 0.575
54.6626 0.581
54.6792 0.679
54.6957 0.532
54.7122 0.532
54.7288 0.603
54.7453 0.564
54.7619 0.663
54.7784 0.614
54.7950 0.586
54.8115 0.603
54.8281 0.537
54.8446 0.559
54.8612 0.570
54.8777 0.477
54.8942 0.658
54.9108 0.532
54.9273 0.581
54.9439 0.488
54.9604 0.630
54.9770 0.521
54.9935 0.564
55.0101 0.581
55.0266 0.619
55.0432 0.521
55.0597 0.537
55.0762 0.581
55.0928 0.630
55.1093 0.636
55.1259 0.542
55.1424 0.570
55.1590 0.619
55.1755 0.608
55.1921 0.614
55.2086 0.586
55.2252 0.795
55.2417 0.592
55.2582 0.685
55.2748 0.690
55.2913 0.773
55.3079 0.608
55.3244 0.603
55.3410 0.625
55.3575 0.553
55.3741 0.690
55.3906 0.663
55.4072 0.729
55.4237 0.652
55.4402 0.619
55.4568 0.625
55.4733 0.712
55.4899 0.597
55.5064 0.690
55.5230 0.592
55.5395 0.668
55.5561 0.685
55.5726 0.641
55.5892 0.570
55.6057 0.745
55.6222 0.701
55.6388 0.592
55.6553 0.647
55.6719 0.619
55.6884 0.745
55.7050 0.619
55.7215 0.663
55.7381 0.701
55.7546 0.740
55.7712 0.734
55.7877 0.553
55.8042 0.614
55.8208 0.668
55.8373 0.674
55.8539 0.532
55.8704 0.614
55.8870 0.652
55.9035 0.663
55.9201 0.696
55.9366 0.575
55.9532 0.619
55.9697 0.795
55.9862 0.751
56.0028 0.630
56.0193 0.707
56.0359 0.668
56.0524 0.652
56.0690 0.718
56.0855 0.592
56.1021 0.663
56.1186 0.625
56.1352 0.690
56.1517 0.647
56.1682 0.581
56.1848 0.712
56.2013 0.712
56.2179 0.652
56.2344 0.701
56.2510 0.800
56.2675 0.701
56.2841 0.696
56.3006 0.685
56.3172 0.707
56.3337 0.674
56.3502 0.603
56.3668 0.762
56.3833 0.778
56.3999 0.712
56.4164 0.679
56.4330 0.729
56.4495 0.679
56.4661 0.882
56.4826 0.844
56.4992 0.756
56.5157 0.805
56.5322 0.767
56.5488 0.718
56.5653 0.789
56.5819 0.811
56.5984 0.860
56.6150 0.740
56.6315 0.811
56.6481 0.904
56.6646 0.795
56.6812 0.816
56.6977 0.762
56.7142 0.849
56.7308 0.849
56.7473 0.822
56.7639 0.915
56.7804 0.948
56.7970 0.948
56.8135 0.871
56.8301 0.899
56.8466 1.041
56.8632 1.118
56.8797 1.178
56.8962 1.260
56.9128 1.145
56.9293 1.282
56.9459 1.293
56.9624 1.485
56.9790 1.518
56.9955 1.693
57.0121 1.951
57.0286 1.764
57.0452 2.066
57.0617 2.148
57.0782 2.734
57.0948 2.959
57.1113 3.255
57.1279 3.474
57.1444 3.879
57.1610 4.389
57.1775 4.805
57.1941 5.671
57.2106 6.153
57.2272 6.915
57.2437 8.071
57.2602 9.162
57.2768 10.773
57.2933 12.833
57.3099 15.123
57.3264 17.540
57.3430 21.397
57.3595 25.562
57.3761 29.677
57.3926 34.795
57.4091 37.403
57.4257 39.721
57.4422 38.367
57.4588 33.551
57.4753 28.263
57.4919 23.370
57.5084 20.203
57.5250 18.871
57.5415 19.638
57.5581 20.301
57.5746 20.466
57.5911 19.901
57.6077 16.597
57.6242 14.175
57.6408 9.973
57.6573 7.573
57.6739 5.381
57.6904 4.121
57.7070 3.616
57.7235 2.833
57.7401 2.679
57.7566 2.537
57.7731 2.027
57.7897 1.973
57.8062 1.748
57.8228 1.518
57.8393 1.523
57.8559 1.414
57.8724 1.364
57.8890 1.255
57.9055 1.151
57.9221 1.047
57.9386 0.981
57.9551 1.156
57.9717 0.986
57.9882 1.068
58.0048 1.019
58.0213 0.992
58.0379 0.899
58.0544 0.866
58.0710 0.975
58.0875 0.767
58.1041 0.893
58.1206 0.822
58.1371 0.827
58.1537 0.822
58.1702 0.756
58.1868 0.795
58.2033 0.844
58.2199 0.641
58.2364 0.789
58.2530 0.729
58.2695 0.608
58.2861 0.679
58.3026 0.658
58.3191 0.767
58.3357 0.690
58.3522 0.740
58.3688 0.805
58.3853 0.658
58.4019 0.723
58.4184 0.663
58.4350 0.674
58.4515 0.619
58.4681 0.751
58.4846 0.707
58.5011 0.729
58.5177 0.707
58.5342 0.603
58.5508 0.586
58.5673 0.718
58.5839 0.570
58.6004 0.636
58.6170 0.603
58.6335 0.636
58.6501 0.564
58.6666 0.619
58.6831 0.647
58.6997 0.570
58.7162 0.625
58.7328 0.652
58.7493 0.668
58.7659 0.718
58.7824 0.597
58.7990 0.603
58.8155 0.466
58.8321 0.532
58.8486 0.641
58.8651 0.537
58.8817 0.548
58.8982 0.504
58.9148 0.614
58.9313 0.570
58.9479 0.658
58.9644 0.575
58.9810 0.586
58.9975 0.553
59.0141 0.619
59.0306 0.701
59.0471 0.630
59.0637 0.499
59.0802 0.581
59.0968 0.619
59.1133 0.614
59.1299 0.482
59.1464 0.625
59.1630 0.674
59.1795 0.625
59.1961 0.597
59.2126 0.592
59.2291 0.603
59.2457 0.586
59.2622 0.619
59.2788 0.537
59.2953 0.811
59.3119 0.603
59.3284 0.658
59.3450 0.718
59.3615 0.652
59.3781 0.701
59.3946 0.625
59.4111 0.712
59.4277 0.614
59.4442 0.729
59.4608 0.674
59.4773 0.696
59.4939 0.773
59.5104 0.827
59.5270 0.910
59.5435 0.964
59.5601 0.926
59.5766 0.986
59.5931 1.227
59.6097 1.156
59.6262 1.436
59.6428 1.441
59.6593 1.463
59.6759 1.458
59.6924 1.458
59.7090 1.211
59.7255 1.271
59.7421 1.189
59.7586 0.948
59.7751 1.025
59.7917 0.975
59.8082 0.997
59.8248 1.052
59.8413 0.904
59.8579 1.184
59.8744 0.877
59.8910 0.800
59.9075 0.712
59.9241 0.690
59.9406 0.652
59.9571 0.636
59.9737 0.619
59.9902 0.581
60.0068 0.619
60.0233 0.482
60.0399 0.488
60.0564 0.532
60.0730 0.553
60.0895 0.537
60.1060 0.614
60.1226 0.575
60.1391 0.466
60.1557 0.542
60.1722 0.614
60.1888 0.570
60.2053 0.570
60.2219 0.570
60.2384 0.542
60.2550 0.630
60.2715 0.647
60.2880 0.718
60.3046 0.668
60.3211 0.471
60.3377 0.553
60.3542 0.608
60.3708 0.608
60.3873 0.488
60.4039 0.488
60.4204 0.636
60.4370 0.625
60.4535 0.603
60.4700 0.575
60.4866 0.570
60.5031 0.712
60.5197 0.614
60.5362 0.581
60.5528 0.636
60.5693 0.515
60.5859 0.570
60.6024 0.614
60.6190 0.647
60.6355 0.553
60.6520 0.647
60.6686 0.641
60.6851 0.679
60.7017 0.679
60.7182 0.663
60.7348 0.652
60.7513 0.641
60.7679 0.827
60.7844 0.707
60.8010 0.882
60.8175 0.849
60.8340 0.838
60.8506 0.915
60.8671 0.986
60.8837 0.975
60.9002 1.145
60.9168 1.079
60.9333 1.140
60.9499 1.326
60.9664 1.359
60.9830 1.452
60.9995 1.671
61.0160 1.858
61.0326 2.285
61.0491 2.164
61.0657 2.553
61.0822 2.488
61.0988 2.444
61.1153 2.707
61.1319 2.756
61.1484 2.899
61.1650 2.981
61.1815 3.304
61.1980 3.671
61.2146 4.110
61.2311 3.934
61.2477 3.501
61.2642 3.140
61.2808 2.674
61.2973 2.323
61.3139 1.907
61.3304 1.781
61.3470 1.907
61.3635 2.038
61.3800 1.912
61.3966 2.027
61.4131 1.847
61.4297 1.715
61.4462 1.216
61.4628 1.107
61.4793 0.822
61.4959 0.997
61.5124 0.679
61.5290 0.795
61.5455 0.718
61.5620 0.663
61.5786 0.630
61.5951 0.575
61.6117 0.592
61.6282 0.521
61.6448 0.619
61.6613 0.685
61.6779 0.575
61.6944 0.619
61.7110 0.542
61.7275 0.619
61.7440 0.564
61.7606 0.521
61.7771 0.603
61.7937 0.493
61.8102 0.542
61.8268 0.575
61.8433 0.570
61.8599 0.542
61.8764 0.532
61.8930 0.504
61.9095 0.592
61.9260 0.564
61.9426 0.510
61.9591 0.427
61.9757 0.499
61.9922 0.384
62.0088 0.537
62.0253 0.477
62.0419 0.521
62.0584 0.460
62.0750 0.537
62.0915 0.619
62.1080 0.647
62.1246 0.515
62.1411 0.542
62.1577 0.499
62.1742 0.488
62.1908 0.471
62.2073 0.570
62.2239 0.488
62.2404 0.548
62.2570 0.416
62.2735 0.400
62.2900 0.455
62.3066 0.504
62.3231 0.537
62.3397 0.592
62.3562 0.504
62.3728 0.499
62.3893 0.405
62.4059 0.395
62.4224 0.416
62.4390 0.444
62.4555 0.433
62.4720 0.526
62.4886 0.427
62.5051 0.460
62.5217 0.427
62.5382 0.460
62.5548 0.444
62.5713 0.482
62.5879 0.515
62.6044 0.482
62.6210 0.548
62.6375 0.455
62.6540 0.510
62.6706 0.411
62.6871 0.499
62.7037 0.444
62.7202 0.444
62.7368 0.504
62.7533 0.400
62.7699 0.504
62.7864 0.400
62.8029 0.427
62.8195 0.438
62.8360 0.438
62.8526 0.444
62.8691 0.466
62.8857 0.449
62.9022 0.482
62.9188 0.460
62.9353 0.466
62.9519 0.471
62.9684 0.471
62.9849 0.515
63.0015 0.482
63.0180 0.444
63.0346 0.532
63.0511 0.488
63.0677 0.460
63.0842 0.603
63.1008 0.488
63.1173 0.521
63.1339 0.564
63.1504 0.526
63.1669 0.521
63.1835 0.416
63.2000 0.493
63.2166 0.477
63.2331 0.488
63.2497 0.499
63.2662 0.559
63.2828 0.548
63.2993 0.488
63.3159 0.400
63.3324 0.499
63.3489 0.460
63.3655 0.466
63.3820 0.427
63.3986 0.488
63.4151 0.455
63.4317 0.416
63.4482 0.466
63.4648 0.455
63.4813 0.603
63.4979 0.422
63.5144 0.488
63.5309 0.422
63.5475 0.444
63.5640 0.542
63.5806 0.482
63.5971 0.460
63.6137 0.493
63.6302 0.455
63.6468 0.499
63.6633 0.493
63.6799 0.526
63.6964 0.488
63.7129 0.433
63.7295 0.422
63.7460 0.482
63.7626 0.460
63.7791 0.455
63.7957 0.455
63.8122 0.477
63.8288 0.515
63.8453 0.526
63.8619 0.532
63.8784 0.592
63.8949 0.471
63.9115 0.499
63.9280 0.515
63.9446 0.526
63.9611 0.504
63.9777 0.504
63.9942 0.537
64.0108 0.542
64.0273 0.460
64.0439 0.515
64.0604 0.499
64.0769 0.389
64.0935 0.471
64.1100 0.553
64.1266 0.488
64.1431 0.488
64.1597 0.575
64.1762 0.548
64.1928 0.548
64.2093 0.559
64.2259 0.488
64.2424 0.542
64.2589 0.570
64.2755 0.515
64.2920 0.488
64.3086 0.499
64.3251 0.455
64.3417 0.515
64.3582 0.510
64.3748 0.510
64.3913 0.444
64.4079 0.499
64.4244 0.493
64.4409 0.477
64.4575 0.340
64.4740 0.548
64.4906 0.526
64.5071 0.553
64.5237 0.515
64.5402 0.592
64.5568 0.455
64.5733 0.499
64.5899 0.493
64.6064 0.477
64.6229 0.630
64.6395 0.438
64.6560 0.444
64.6726 0.438
64.6891 0.521
64.7057 0.564
64.7222 0.411
64.7388 0.521
64.7553 0.477
64.7719 0.510
64.7884 0.521
64.8049 0.586
64.8215 0.444
64.8380 0.433
64.8546 0.504
64.8711 0.466
64.8877 0.526
64.9042 0.532
64.9208 0.488
64.9373 0.515
64.9539 0.581
64.9704 0.471
64.9869 0.619
65.0035 0.521
65.0200 0.515
65.0366 0.471
65.0531 0.510
65.0697 0.537
65.0862 0.515
65.1028 0.471
65.1193 0.542
65.1359 0.488
65.1524 0.493
65.1689 0.608
65.1855 0.510
65.2020 0.597
65.2186 0.532
65.2351 0.581
65.2517 0.608
65.2682 0.663
65.2848 0.537
65.3013 0.466
65.3179 0.537
65.3344 0.696
65.3509 0.608
65.3675 0.586
65.3840 0.471
65.4006 0.504
65.4171 0.630
65.4337 0.597
65.4502 0.553
65.4668 0.586
65.4833 0.652
65.4999 0.608
65.5164 0.542
65.5329 0.521
65.5495 0.553
65.5660 0.586
65.5826 0.559
65.5991 0.542
65.6157 0.658
65.6322 0.762
65.6488 0.707
65.6653 0.701
65.6818 0.570
65.6984 0.559
65.7149 0.636
65.7315 0.773
65.7480 0.592
65.7646 0.658
65.7811 0.663
65.7977 0.734
65.8142 0.597
65.8308 0.800
65.8473 0.668
65.8638 0.658
65.8804 0.668
65.8969 0.767
65.9135 0.658
65.9300 0.751
65.9466 0.855
65.9631 0.795
65.9797 0.992
65.9962 0.953
66.0128 0.997
66.0293 1.162
66.0458 1.222
66.0624 1.227
66.0789 1.425
66.0955 1.507
66.1120 1.616
66.1286 1.529
66.1451 1.890
66.1617 1.918
66.1782 2.142
66.1948 2.268
66.2113 2.608
66.2278 2.926
66.2444 3.710
66.2609 3.748
66.2775 4.301
66.2940 4.838
66.3106 5.419
66.3271 6.658
66.3437 7.200
66.3602 9.123
66.3768 10.110
66.3933 11.562
66.4098 12.986
66.4264 13.770
66.4429 13.726
66.4595 12.679
66.4760 11.173
66.4926 8.866
66.5091 8.153
66.5257 6.455
66.5422 6.268
66.5588 6.449
66.5753 7.063
66.5918 6.970
66.6084 7.216
66.6249 6.992
66.6415 6.532
66.6580 5.600
66.6746 4.696
66.6911 3.496
66.7077 2.521
66.7242 2.022
66.7408 1.775
66.7573 1.704
66.7738 1.408
66.7904 1.304
66.8069 1.271
66.8235 0.981
66.8400 1.123
66.8566 0.992
66.8731 0.866
66.8897 1.008
66.9062 0.986
66.9228 0.762
66.9393 0.723
66.9558 0.822
66.9724 0.773
66.9889 0.844
67.0055 0.899
67.0220 0.926
67.0386 0.740
67.0551 0.718
67.0717 0.729
67.0882 0.668
67.1048 0.564
67.1213 0.740
67.1378 0.614
67.1544 0.668
67.1709 0.701
67.1875 0.608
67.2040 0.745
67.2206 0.816
67.2371 0.707
67.2537 0.740
67.2702 0.805
67.2868 0.762
67.3033 0.784
67.3198 0.734
67.3364 0.734
67.3529 0.718
67.3695 0.652
67.3860 0.784
67.4026 0.866
67.4191 0.740
67.4357 0.827
67.4522 0.751
67.4688 0.762
67.4853 0.811
67.5018 0.827
67.5184 0.712
67.5349 0.822
67.5515 0.948
67.5680 0.915
67.5846 1.019
67.6011 1.047
67.6177 0.975
67.6342 0.948
67.6508 1.003
67.6673 1.277
67.6838 1.200
67.7004 1.293
67.7169 1.353
67.7335 1.540
67.7500 1.589
67.7666 1.693
67.7831 1.945
67.7997 2.022
67.8162 2.252
67.8328 2.488
67.8493 2.718
67.8658 2.712
67.8824 3.337
67.8989 3.682
67.9155 4.077
67.9320 4.493
67.9486 4.838
67.9651 6.005
67.9817 7.085
67.9982 7.704
68.0148 9.479
68.0313 10.860
68.0478 12.893
68.0644 15.014
68.0809 17.742
68.0975 19.019
68.1140 20.942
68.1306 20.351
68.1471 18.740
68.1637 16.153
68.1802 13.474
68.1968 11.233
68.2133 9.671
68.2298 8.427
68.2464 8.789
68.2629 9.370
68.2795 10.044
68.2960 10.312
68.3126 10.866
68.3291 9.567
68.3457 9.266
68.3622 7.145
68.3787 5.644
68.3953 4.027
68.4118 3.211
68.4284 2.723
68.4449 1.978
68.4615 1.934
68.4780 1.742
68.4946 1.474
68.5111 1.403
68.5277 1.145
68.5442 1.030
68.5607 1.041
68.5773 0.904
68.5938 0.860
68.6104 0.964
68.6269 0.866
68.6435 0.975
68.6600 0.827
68.6766 0.866
68.6931 0.811
68.7097 0.723
68.7262 0.718
68.7427 0.723
68.7593 0.712
68.7758 0.696
68.7924 0.712
68.8089 0.608
68.8255 0.597
68.8420 0.619
68.8586 0.597
68.8751 0.515
68.8917 0.641
68.9082 0.515
68.9247 0.614
68.9413 0.647
68.9578 0.532
68.9744 0.674
68.9909 0.510
69.0075 0.685
69.0240 0.499
69.0406 0.553
69.0571 0.471
69.0737 0.679
69.0902 0.521
69.1067 0.521
69.1233 0.570
69.1398 0.564
69.1564 0.630
69.1729 0.614
69.1895 0.405
69.2060 0.433
69.2226 0.559
69.2391 0.532
69.2557 0.455
69.2722 0.592
69.2887 0.515
69.3053 0.444
69.3218 0.521
69.3384 0.521
69.3549 0.460
69.3715 0.510
69.3880 0.608
69.4046 0.521
69.4211 0.455
69.4377 0.542
69.4542 0.416
69.4707 0.488
69.4873 0.471
69.5038 0.537
69.5204 0.477
69.5369 0.521
69.5535 0.444
69.5700 0.400
69.5866 0.433
69.6031 0.466
69.6197 0.411
69.6362 0.548
69.6527 0.548
69.6693 0.477
69.6858 0.493
69.7024 0.449
69.7189 0.526
69.7355 0.482
69.7520 0.460
69.7686 0.405
69.7851 0.438
69.8017 0.455
69.8182 0.427
69.8347 0.416
69.8513 0.542
69.8678 0.548
69.8844 0.395
69.9009 0.384
69.9175 0.559
69.9340 0.455
69.9506 0.521
69.9671 0.477
69.9837 0.532
70.0002 0.444
