'Id: "" Comment: "" Operator: "Administrator" Anode: "Cu" Scantype: "Locked Coupled" TimePerStep: "182.5" X: "0" Y: "0" Z: "0" 
20.0000 2.674
20.0165 2.679
20.0331 2.570
20.0496 2.477
20.0662 2.597
20.0827 2.488
20.0993 2.400
20.1158 2.477
20.1324 2.192
20.1489 2.630
20.1655 2.405
20.1820 2.323
20.1985 2.356
20.2151 2.619
20.2316 2.449
20.2482 2.318
20.2647 2.318
20.2813 2.570
20.2978 2.438
20.3144 2.466
20.3309 2.482
20.3475 2.290
20.3640 2.405
20.3805 2.422
20.3971 2.532
20.4136 2.625
20.4302 2.427
20.4467 2.482
20.4633 2.384
20.4798 2.362
20.4964 2.384
20.5129 2.258
20.5295 2.318
20.5460 2.433
20.5625 2.499
20.5791 2.411
20.5956 2.405
20.6122 2.482
20.6287 2.340
20.6453 2.241
20.6618 2.362
20.6784 2.329
20.6949 2.351
20.7115 2.367
20.7280 2.345
20.7445 2.438
20.7611 2.405
20.7776 2.296
20.7942 2.378
20.8107 2.351
20.8273 2.301
20.8438 2.318
20.8604 2.351
20.8769 2.279
20.8935 2.449
20.9100 2.373
20.9265 2.230
20.9431 2.263
20.9596 2.197
20.9762 2.493
20.9927 2.367
21.0093 2.307
21.0258 2.477
21.0424 2.290
21.0589 2.373
21.0755 2.367
21.0920 2.274
21.1085 2.192
21.1251 2.274
21.1416 2.586
21.1582 2.175
21.1747 2.521
21.1913 2.493
21.2078 2.482
21.2244 2.570
21.2409 2.400
21.2575 2.312
21.2740 2.378
21.2905 2.225
21.3071 2.334
21.3236 2.362
21.3402 2.395
21.3567 2.301
21.3733 2.274
21.3898 2.274
21.4064 2.170
21.4229 2.197
21.4394 2.329
21.4560 2.323
21.4725 2.110
21.4891 2.274
21.5056 2.521
21.5222 2.274
21.5387 2.268
21.5553 2.290
21.5718 2.340
21.5884 2.290
21.6049 2.181
21.6214 2.329
21.6380 2.460
21.6545 2.181
21.6711 2.219
21.6876 2.586
21.7042 2.258
21.7207 2.132
21.7373 2.329
21.7538 2.071
21.7704 2.389
21.7869 2.274
21.8034 2.274
21.8200 2.236
21.8365 2.312
21.8531 2.236
21.8696 2.630
21.8862 2.340
21.9027 2.247
21.9193 2.449
21.9358 2.318
21.9524 2.334
21.9689 2.411
21.9854 2.356
22.0020 2.247
22.0185 2.268
22.0351 2.263
22.0516 2.329
22.0682 2.247
22.0847 2.126
22.1013 2.175
22.1178 2.137
22.1344 2.362
22.1509 2.093
22.1674 2.252
22.1840 2.121
22.2005 2.126
22.2171 2.225
22.2336 2.159
22.2502 2.153
22.2667 2.121
22.2833 2.301
22.2998 2.301
22.3164 2.110
22.3329 2.137
22.3494 2.132
22.3660 2.225
22.3825 2.088
22.3991 2.011
22.4156 2.110
22.4322 2.049
22.4487 2.016
22.4653 2.290
22.4818 2.142
22.4984 2.312
22.5149 2.110
22.5314 1.874
22.5480 1.984
22.5645 2.060
22.5811 2.197
22.5976 2.066
22.6142 2.268
22.6307 2.088
22.6473 1.918
22.6638 1.962
22.6804 2.049
22.6969 2.214
22.7134 2.055
22.7300 1.978
22.7465 2.159
22.7631 2.104
22.7796 2.148
22.7962 2.049
22.8127 2.148
22.8293 2.219
22.8458 2.071
22.8624 1.951
22.8789 1.896
22.8954 2.005
22.9120 2.055
22.9285 1.956
22.9451 2.148
22.9616 2.170
22.9782 2.279
22.9947 2.153
23.0113 2.219
23.0278 1.989
23.0444 2.137
23.0609 2.016
23.0774 2.115
23.0940 2.208
23.1105 2.110
23.1271 2.225
23.1436 1.951
23.1602 2.071
23.1767 2.164
23.1933 1.995
23.2098 2.296
23.2264 2.230
23.2429 2.077
23.2594 2.225
23.2760 2.104
23.2925 1.951
23.3091 2.055
23.3256 2.033
23.3422 1.951
23.3587 1.907
23.3753 1.962
23.3918 1.951
23.4084 2.033
23.4249 2.093
23.4414 2.181
23.4580 1.874
23.4745 2.055
23.4911 1.901
23.5076 1.874
23.5242 1.984
23.5407 1.973
23.5573 2.022
23.5738 1.901
23.5904 2.011
23.6069 2.066
23.6234 2.153
23.6400 1.989
23.6565 2.049
23.6731 2.011
23.6896 2.066
23.7062 1.978
23.7227 1.912
23.7393 1.934
23.7558 2.153
23.7724 1.912
23.7889 2.334
23.8054 2.230
23.8220 2.148
23.8385 1.929
23.8551 2.082
23.8716 2.011
23.8882 2.104
23.9047 2.104
23.9213 2.175
23.9378 2.115
23.9544 2.088
23.9709 2.038
23.9874 2.044
24.0040 2.318
24.0205 2.247
24.0371 2.181
24.0536 2.290
24.0702 2.400
24.0867 2.345
24.1033 2.296
24.1198 2.329
24.1364 2.416
24.1529 2.296
24.1694 2.312
24.1860 2.614
24.2025 2.553
24.2191 2.471
24.2356 2.422
24.2522 2.378
24.2687 2.367
24.2853 2.833
24.3018 2.575
24.3183 2.537
24.3349 2.542
24.3514 2.455
24.3680 2.416
24.3845 2.493
24.4011 2.663
24.4176 2.537
24.4342 2.537
24.4507 2.564
24.4673 2.833
24.4838 2.822
24.5003 2.526
24.5169 2.395
24.5334 2.570
24.5500 2.493
24.5665 2.455
24.5831 2.893
24.5996 2.455
24.6162 2.510
24.6327 2.614
24.6493 2.789
24.6658 2.696
24.6823 2.597
24.6989 2.921
24.7154 2.630
24.7320 2.942
24.7485 2.992
24.7651 2.625
24.7816 2.542
24.7982 2.679
24.8147 2.477
24.8313 2.932
24.8478 2.586
24.8643 2.959
24.8809 2.466
24.8974 2.663
24.9140 2.696
24.9305 2.932
24.9471 2.696
24.9636 2.647
24.9802 2.860
24.9967 2.816
25.0133 2.597
25.0298 2.893
25.0463 2.701
25.0629 2.827
25.0794 2.805
25.0960 2.975
25.1125 2.619
25.1291 2.981
25.1456 3.014
25.1622 3.036
25.1787 3.162
25.1953 3.211
25.2118 3.414
25.2283 3.271
25.2449 3.770
25.2614 4.044
25.2780 4.219
25.2945 4.110
25.3111 4.822
25.3276 5.627
25.3442 5.984
25.3607 6.877
25.3773 7.748
25.3938 8.877
25.4103 11.129
25.4269 13.704
25.4434 16.740
25.4600 21.118
25.4765 26.510
25.4931 31.101
25.5096 36.137
25.5262 37.622
25.5427 35.567
25.5593 31.611
25.5758 26.899
25.5923 23.112
25.6089 18.170
25.6254 14.077
25.6420 10.307
25.6585 7.995
25.6751 6.066
25.6916 5.107
25.7082 4.395
25.7247 4.153
25.7413 3.441
25.7578 3.195
25.7743 3.233
25.7909 2.942
25.8074 3.068
25.8240 2.970
25.8405 2.959
25.8571 2.795
25.8736 2.553
25.8902 2.532
25.9067 2.712
25.9233 2.690
25.9398 2.679
25.9563 2.603
25.9729 2.362
25.9894 2.444
26.0060 2.521
26.0225 2.532
26.0391 2.477
26.0556 2.329
26.0722 2.526
26.0887 2.307
26.1053 2.575
26.1218 2.701
26.1383 2.318
26.1549 2.104
26.1714 2.247
26.1880 2.340
26.2045 2.208
26.2211 2.323
26.2376 2.389
26.2542 2.027
26.2707 2.263
26.2873 2.236
26.3038 2.307
26.3203 2.186
26.3369 2.252
26.3534 2.164
26.3700 2.241
26.3865 2.093
26.4031 2.088
26.4196 2.263
26.4362 2.230
26.4527 2.126
26.4693 2.005
26.4858 2.088
26.5023 2.170
26.5189 2.153
26.5354 2.225
26.5520 2.088
26.5685 2.159
26.5851 2.153
26.6016 2.071
26.6182 2.236
26.6347 1.923
26.6513 2.132
26.6678 2.099
26.6843 2.121
26.7009 2.088
26.7174 2.099
26.7340 2.082
26.7505 2.126
26.7671 2.005
26.7836 2.088
26.8002 2.219
26.8167 2.022
26.8333 2.088
26.8498 2.208
26.8663 1.896
26.8829 2.088
26.8994 2.033
26.9160 2.049
26.9325 2.104
26.9491 1.879
26.9656 2.159
26.9822 1.973
26.9987 2.011
27.0152 2.011
27.0318 2.005
27.0483 2.115
27.0649 2.110
27.0814 1.836
27.0980 1.901
27.1145 1.984
27.1311 1.792
27.1476 1.956
27.1642 1.929
27.1807 1.978
27.1972 1.995
27.2138 2.022
27.2303 2.055
27.2469 1.923
27.2634 2.000
27.2800 2.077
27.2965 1.885
27.3131 2.088
27.3296 1.978
27.3462 1.907
27.3627 2.099
27.3792 2.011
27.3958 1.863
27.4123 2.132
27.4289 1.803
27.4454 1.830
27.4620 1.819
27.4785 1.748
27.4951 1.940
27.5116 1.918
27.5282 1.863
27.5447 1.759
27.5612 1.748
27.5778 1.764
27.5943 2.005
27.6109 1.956
27.6274 1.742
27.6440 1.967
27.6605 1.874
27.6771 1.715
27.6936 1.830
27.7102 1.841
27.7267 1.814
27.7432 1.945
27.7598 1.786
27.7763 1.901
27.7929 1.814
27.8094 1.907
27.8260 1.797
27.8425 1.951
27.8591 1.923
27.8756 1.781
27.8922 1.836
27.9087 1.863
27.9252 1.852
27.9418 1.721
27.9583 1.737
27.9749 1.879
27.9914 1.710
28.0080 1.819
28.0245 1.885
28.0411 1.710
28.0576 1.770
28.0742 1.732
28.0907 1.803
28.1072 1.759
28.1238 1.633
28.1403 1.671
28.1569 1.600
28.1734 1.721
28.1900 1.726
28.2065 1.732
28.2231 1.770
28.2396 1.644
28.2562 1.693
28.2727 1.556
28.2892 1.666
28.3058 1.759
28.3223 1.682
28.3389 1.671
28.3554 1.770
28.3720 1.710
28.3885 1.627
28.4051 1.688
28.4216 1.573
28.4382 1.775
28.4547 1.688
28.4712 1.649
28.4878 1.616
28.5043 1.622
28.5209 1.556
28.5374 1.666
28.5540 1.797
28.5705 1.660
28.5871 1.474
28.6036 1.381
28.6202 1.545
28.6367 1.611
28.6532 1.666
28.6698 1.518
28.6863 1.419
28.7029 1.408
28.7194 1.589
28.7360 1.666
28.7525 1.605
28.7691 1.605
28.7856 1.682
28.8022 1.551
28.8187 1.496
28.8352 1.534
28.8518 1.490
28.8683 1.523
28.8849 1.748
28.9014 1.540
28.9180 1.408
28.9345 1.419
28.9511 1.584
28.9676 1.578
28.9842 1.523
29.0007 1.611
29.0172 1.496
29.0338 1.600
29.0503 1.825
29.0669 1.655
29.0834 1.359
29.1000 1.474
29.1165 1.463
29.1331 1.540
29.1496 1.381
29.1662 1.666
29.1827 1.584
29.1992 1.507
29.2158 1.529
29.2323 1.551
29.2489 1.523
29.2654 1.370
29.2820 1.479
29.2985 1.436
29.3151 1.616
29.3316 1.200
29.3482 1.425
29.3647 1.375
29.3812 1.562
29.3978 1.578
29.4143 1.573
29.4309 1.425
29.4474 1.315
29.4640 1.392
29.4805 1.332
29.4971 1.501
29.5136 1.375
29.5302 1.310
29.5467 1.392
29.5632 1.337
29.5798 1.501
29.5963 1.381
29.6129 1.364
29.6294 1.200
29.6460 1.441
29.6625 1.249
29.6791 1.392
29.6956 1.507
29.7121 1.408
29.7287 1.293
29.7452 1.370
29.7618 1.518
29.7783 1.304
29.7949 1.397
29.8114 1.293
29.8280 1.348
29.8445 1.430
29.8611 1.573
29.8776 1.397
29.8941 1.397
29.9107 1.441
29.9272 1.288
29.9438 1.304
29.9603 1.370
29.9769 1.375
29.9934 1.381
30.0100 1.419
30.0265 1.430
30.0431 1.518
30.0596 1.342
30.0761 1.458
30.0927 1.370
30.1092 1.419
30.1258 1.408
30.1423 1.578
30.1589 1.392
30.1754 1.375
30.1920 1.364
30.2085 1.392
30.2251 1.244
30.2416 1.277
30.2581 1.222
30.2747 1.233
30.2912 1.512
30.3078 1.353
30.3243 1.375
30.3409 1.288
30.3574 1.222
30.3740 1.381
30.3905 1.485
30.4071 1.266
30.4236 1.529
30.4401 1.244
30.4567 1.282
30.4732 1.337
30.4898 1.205
30.5063 1.337
30.5229 1.266
30.5394 1.277
30.5560 1.337
30.5725 1.425
30.5891 1.337
30.6056 1.299
30.6221 1.288
30.6387 1.173
30.6552 1.364
30.6718 1.233
30.6883 1.277
30.7049 1.162
30.7214 1.271
30.7380 1.260
30.7545 1.162
30.7711 1.375
30.7876 1.255
30.8041 1.178
30.8207 1.211
30.8372 1.249
30.8538 1.293
30.8703 1.238
30.8869 1.315
30.9034 1.321
30.9200 1.244
30.9365 1.397
30.9531 1.260
30.9696 1.211
30.9861 1.233
31.0027 1.101
31.0192 1.205
31.0358 1.386
31.0523 1.332
31.0689 1.348
31.0854 1.200
31.1020 1.123
31.1185 1.216
31.1351 1.211
31.1516 1.178
31.1681 1.299
31.1847 1.271
31.2012 1.255
31.2178 1.244
31.2343 1.211
31.2509 1.167
31.2674 1.184
31.2840 1.304
31.3005 1.288
31.3171 1.151
31.3336 1.118
31.3501 1.271
31.3667 1.189
31.3832 1.167
31.3998 1.195
31.4163 1.326
31.4329 1.260
31.4494 1.266
31.4660 1.156
31.4825 1.211
31.4991 1.337
31.5156 1.238
31.5321 1.370
31.5487 1.342
31.5652 1.277
31.5818 1.282
31.5983 1.332
31.6149 1.244
31.6314 1.222
31.6480 1.233
31.6645 1.211
31.6811 1.178
31.6976 1.134
31.7141 1.189
31.7307 1.118
31.7472 1.101
31.7638 1.052
31.7803 1.036
31.7969 1.216
31.8134 1.096
31.8300 1.140
31.8465 1.195
31.8631 1.167
31.8796 1.151
31.8961 1.211
31.9127 1.019
31.9292 1.041
31.9458 1.162
31.9623 1.090
31.9789 1.019
31.9954 1.063
32.0120 1.162
32.0285 1.178
32.0451 1.271
32.0616 1.096
32.0781 1.205
32.0947 1.068
32.1112 1.025
32.1278 1.079
32.1443 1.233
32.1609 1.030
32.1774 1.134
32.1940 1.047
32.2105 1.140
32.2271 1.156
32.2436 1.112
32.2601 1.085
32.2767 1.085
32.2932 1.008
32.3098 1.101
32.3263 0.970
32.3429 1.189
32.3594 0.992
32.3760 1.162
32.3925 1.156
32.4091 0.981
32.4256 1.058
32.4421 1.145
32.4587 1.162
32.4752 0.981
32.4918 1.271
32.5083 1.101
32.5249 1.184
32.5414 1.129
32.5580 1.151
32.5745 1.101
32.5910 0.948
32.6076 1.162
32.6241 1.173
32.6407 1.041
32.6572 1.074
32.6738 1.030
32.6903 1.008
32.7069 1.184
32.7234 1.118
32.7400 1.014
32.7565 1.085
32.7730 1.107
32.7896 1.107
32.8061 1.205
32.8227 1.123
32.8392 0.964
32.8558 1.003
32.8723 0.910
32.8889 0.986
32.9054 1.151
32.9220 1.173
32.9385 1.047
32.9550 0.970
32.9716 1.134
32.9881 1.282
33.0047 0.981
33.0212 1.074
33.0378 1.008
33.0543 1.090
33.0709 1.211
33.0874 1.101
33.1040 1.123
33.1205 1.041
33.1370 0.981
33.1536 1.162
33.1701 1.090
33.1867 1.112
33.2032 1.014
33.2198 1.074
33.2363 1.096
33.2529 1.052
33.2694 1.140
33.2860 1.047
33.3025 1.151
33.3190 1.118
33.3356 0.953
33.3521 0.904
33.3687 1.123
33.3852 1.074
33.4018 0.986
33.4183 0.926
33.4349 1.101
33.4514 1.134
33.4680 0.992
33.4845 0.932
33.5010 1.101
33.5176 1.079
33.5341 0.986
33.5507 1.266
33.5672 1.025
33.5838 1.107
33.6003 1.058
33.6169 1.129
33.6334 1.151
33.6500 0.953
33.6665 1.233
33.6830 1.063
33.6996 1.068
33.7161 1.189
33.7327 1.107
33.7492 1.162
33.7658 1.079
33.7823 1.184
33.7989 1.178
33.8154 1.293
33.8320 1.216
33.8485 1.260
33.8650 1.211
33.8816 1.375
33.8981 1.293
33.9147 1.249
33.9312 1.403
33.9478 1.244
33.9643 1.277
33.9809 1.227
33.9974 1.293
34.0140 1.288
34.0305 1.249
34.0470 1.173
34.0636 1.282
34.0801 1.293
34.0967 1.348
34.1132 1.222
34.1298 1.419
34.1463 1.337
34.1629 1.310
34.1794 1.244
34.1960 1.496
34.2125 1.293
34.2290 1.288
34.2456 1.381
34.2621 1.370
34.2787 1.414
34.2952 1.238
34.3118 1.397
34.3283 1.468
34.3449 1.288
34.3614 1.479
34.3780 1.216
34.3945 1.332
34.4110 1.375
34.4276 1.370
34.4441 1.595
34.4607 1.370
34.4772 1.342
34.4938 1.381
34.5103 1.633
34.5269 1.671
34.5434 1.605
34.5600 1.633
34.5765 1.764
34.5930 1.660
34.6096 1.830
34.6261 1.710
34.6427 1.819
34.6592 1.885
34.6758 2.126
34.6923 2.252
34.7089 2.323
34.7254 2.553
34.7420 3.030
34.7585 2.844
34.7750 3.047
34.7916 3.436
34.8081 3.940
34.8247 4.559
34.8412 5.090
34.8578 5.562
34.8743 6.564
34.8909 7.792
34.9074 9.074
34.9240 10.630
34.9405 12.493
34.9570 15.337
34.9736 19.090
34.9901 23.479
35.0067 29.397
35.0232 36.329
35.0398 43.419
35.0563 49.425
35.0729 49.534
35.0894 44.904
35.1060 41.014
35.1225 34.921
35.1390 31.836
35.1556 28.575
35.1721 24.482
35.1887 19.408
35.2052 13.890
35.2218 10.647
35.2383 7.463
35.2549 5.501
35.2714 4.296
35.2879 3.962
35.3045 3.425
35.3210 2.855
35.3376 2.674
35.3541 2.521
35.3707 2.526
35.3872 1.962
35.4038 2.088
35.4203 1.814
35.4369 1.699
35.4534 1.792
35.4699 1.786
35.4865 1.660
35.5030 1.562
35.5196 1.534
35.5361 1.540
35.5527 1.490
35.5692 1.458
35.5858 1.523
35.6023 1.474
35.6189 1.244
35.6354 1.266
35.6519 1.573
35.6685 1.255
35.6850 1.244
35.7016 1.430
35.7181 1.348
35.7347 1.321
35.7512 1.282
35.7678 1.342
35.7843 1.288
35.8009 1.348
35.8174 1.447
35.8339 1.266
35.8505 1.342
35.8670 1.173
35.8836 1.304
35.9001 1.195
35.9167 1.195
35.9332 1.227
35.9498 1.085
35.9663 1.173
35.9829 1.381
35.9994 1.375
36.0159 1.107
36.0325 1.085
36.0490 1.238
36.0656 0.975
36.0821 1.014
36.0987 1.090
36.1152 1.189
36.1318 1.101
36.1483 1.293
36.1649 1.189
36.1814 1.036
36.1979 1.118
36.2145 1.052
36.2310 1.249
36.2476 1.118
36.2641 1.107
36.2807 1.090
36.2972 1.244
36.3138 1.205
36.3303 1.255
36.3469 1.025
36.3634 0.888
36.3799 0.992
36.3965 1.178
36.4130 1.058
36.4296 1.211
36.4461 1.036
36.4627 1.112
36.4792 1.129
36.4958 1.173
36.5123 1.134
36.5289 1.129
36.5454 1.145
36.5619 1.101
36.5785 1.090
36.5950 1.238
36.6116 1.090
36.6281 1.134
36.6447 1.112
36.6612 1.096
36.6778 1.101
36.6943 1.205
36.7109 1.123
36.7274 1.036
36.7439 1.079
36.7605 1.205
36.7770 1.123
36.7936 1.090
36.8101 1.184
36.8267 1.030
36.8432 1.244
36.8598 1.030
36.8763 1.277
36.8929 1.145
36.9094 1.238
36.9259 1.162
36.9425 1.145
36.9590 1.134
36.9756 1.047
36.9921 1.025
37.0087 1.134
37.0252 1.184
37.0418 1.140
37.0583 1.255
37.0749 1.321
37.0914 1.195
37.1079 1.123
37.1245 1.195
37.1410 1.255
37.1576 1.140
37.1741 1.266
37.1907 1.222
37.2072 1.293
37.2238 1.195
37.2403 1.348
37.2569 1.370
37.2734 1.244
37.2899 1.529
37.3065 1.430
37.3230 1.622
37.3396 1.485
37.3561 1.715
37.3727 1.759
37.3892 1.863
37.4058 1.945
37.4223 2.395
37.4389 2.208
37.4554 2.619
37.4719 2.811
37.4885 3.096
37.5050 3.468
37.5216 4.110
37.5381 4.499
37.5547 5.156
37.5712 5.874
37.5878 7.704
37.6043 8.915
37.6209 11.014
37.6374 13.156
37.6539 15.792
37.6705 18.356
37.6870 20.121
37.7036 19.348
37.7201 17.463
37.7367 14.997
37.7532 13.792
37.7698 12.027
37.7863 11.562
37.8029 9.852
37.8194 8.060
37.8359 6.477
37.8525 4.356
37.8690 3.441
37.8856 2.948
37.9021 2.345
37.9187 2.022
37.9352 1.940
37.9518 1.830
37.9683 1.540
37.9848 1.578
38.0014 1.468
38.0179 1.255
38.0345 1.293
38.0510 1.129
38.0676 1.282
38.0841 1.173
38.1007 1.211
38.1172 1.189
38.1338 1.129
38.1503 1.189
38.1668 1.277
38.1834 1.118
38.1999 1.123
38.2165 1.129
38.2330 1.063
38.2496 1.068
38.2661 1.195
38.2827 1.195
38.2992 1.068
38.3158 1.052
38.3323 1.036
38.3488 0.970
38.3654 1.068
38.3819 0.964
38.3985 1.112
38.4150 0.959
38.4316 0.904
38.4481 0.893
38.4647 0.970
38.4812 0.997
38.4978 0.904
38.5143 1.019
38.5308 0.953
38.5474 0.964
38.5639 1.030
38.5805 0.866
38.5970 1.003
38.6136 1.003
38.6301 0.975
38.6467 1.052
38.6632 1.014
38.6798 1.025
38.6963 0.822
38.7128 0.921
38.7294 0.932
38.7459 1.085
38.7625 0.959
38.7790 0.986
38.7956 0.953
38.8121 1.041
38.8287 1.145
38.8452 1.068
38.8618 1.003
38.8783 1.085
38.8948 1.019
38.9114 0.932
38.9279 0.997
38.9445 1.041
38.9610 0.871
38.9776 0.937
38.9941 0.964
39.0107 1.014
39.0272 0.932
39.0438 0.866
39.0603 1.063
39.0768 0.942
39.0934 0.959
39.1099 0.981
39.1265 0.904
39.1430 0.915
39.1596 0.789
39.1761 0.975
39.1927 0.877
39.2092 0.910
39.2258 0.964
39.2423 0.970
39.2588 0.816
39.2754 0.910
39.2919 0.921
39.3085 0.915
39.3250 1.134
39.3416 0.964
39.3581 0.866
39.3747 1.030
39.3912 0.871
39.4078 0.871
39.4243 0.921
39.4408 0.942
39.4574 0.893
39.4739 0.915
39.4905 1.003
39.5070 0.855
39.5236 0.849
39.5401 0.833
39.5567 0.833
39.5732 0.937
39.5898 0.784
39.6063 0.800
39.6228 0.849
39.6394 0.773
39.6559 0.849
39.6725 0.942
39.6890 0.784
39.7056 0.871
39.7221 0.992
39.7387 0.762
39.7552 0.800
39.7718 0.888
39.7883 0.855
39.8048 0.844
39.8214 0.866
39.8379 0.838
39.8545 0.866
39.8710 0.762
39.8876 0.838
39.9041 0.827
39.9207 0.860
39.9372 0.877
39.9538 0.849
39.9703 0.959
39.9868 0.953
40.0034 0.795
40.0199 0.860
40.0365 0.827
40.0530 0.893
40.0696 0.805
40.0861 0.816
40.1027 0.838
40.1192 0.822
40.1358 0.816
40.1523 0.871
40.1688 0.981
40.1854 0.734
40.2019 0.822
40.2185 0.784
40.2350 0.805
40.2516 0.877
40.2681 0.981
40.2847 0.899
40.3012 0.921
40.3178 0.795
40.3343 0.860
40.3508 0.888
40.3674 0.784
40.3839 0.932
40.4005 0.888
40.4170 0.723
40.4336 0.899
40.4501 0.789
40.4667 0.844
40.4832 0.932
40.4998 0.740
40.5163 0.860
40.5328 0.833
40.5494 0.910
40.5659 0.838
40.5825 0.789
40.5990 0.701
40.6156 0.937
40.6321 0.871
40.6487 0.827
40.6652 0.773
40.6818 0.915
40.6983 0.904
40.7148 0.844
40.7314 0.674
40.7479 0.756
40.7645 0.849
40.7810 0.992
40.7976 0.882
40.8141 0.827
40.8307 0.795
40.8472 0.882
40.8637 0.789
40.8803 0.838
40.8968 0.877
40.9134 0.937
40.9299 0.789
40.9465 0.921
40.9630 0.882
40.9796 0.795
40.9961 0.784
41.0127 0.833
41.0292 0.833
41.0457 0.751
41.0623 0.921
41.0788 0.822
41.0954 0.773
41.1119 0.877
41.1285 0.855
41.1450 0.822
41.1616 0.767
41.1781 0.795
41.1947 0.844
41.2112 0.762
41.2277 0.910
41.2443 0.910
41.2608 0.795
41.2774 0.800
41.2939 0.767
41.3105 0.981
41.3270 0.855
41.3436 0.970
41.3601 0.811
41.3767 0.877
41.3932 0.871
41.4097 0.959
41.4263 0.767
41.4428 0.899
41.4594 1.014
41.4759 1.244
41.4925 1.156
41.5090 1.101
41.5256 1.200
41.5421 1.074
41.5587 1.216
41.5752 1.282
41.5917 1.271
41.6083 1.167
41.6248 1.140
41.6414 1.189
41.6579 1.156
41.6745 1.162
41.6910 1.195
41.7076 1.205
41.7241 1.156
41.7407 1.052
41.7572 1.156
41.7737 1.058
41.7903 1.145
41.8068 1.068
41.8234 0.964
41.8399 1.019
41.8565 0.997
41.8730 0.844
41.8896 0.937
41.9061 1.068
41.9227 0.855
41.9392 0.986
41.9557 1.134
41.9723 0.970
41.9888 0.871
42.0054 0.942
42.0219 1.008
42.0385 0.953
42.0550 1.030
42.0716 0.915
42.0881 1.184
42.1047 0.992
42.1212 1.058
42.1377 1.041
42.1543 0.986
42.1708 0.997
42.1874 1.025
42.2039 0.981
42.2205 1.090
42.2370 0.970
42.2536 1.047
42.2701 1.058
42.2867 1.003
42.3032 0.986
42.3197 1.090
42.3363 1.025
42.3528 1.101
42.3694 1.129
42.3859 0.986
42.4025 1.156
42.4190 0.992
42.4356 1.090
42.4521 1.085
42.4687 1.068
42.4852 1.079
42.5017 1.085
42.5183 1.145
42.5348 1.090
42.5514 1.167
42.5679 1.129
42.5845 1.222
42.6010 1.162
42.6176 1.249
42.6341 1.222
42.6507 1.332
42.6672 1.244
42.6837 1.227
42.7003 1.233
42.7168 1.430
42.7334 1.419
42.7499 1.468
42.7665 1.512
42.7830 1.748
42.7996 1.556
42.8161 1.677
42.8327 1.912
42.8492 2.077
42.8657 2.170
42.8823 2.723
42.8988 2.444
42.9154 2.608
42.9319 2.855
42.9485 3.227
42.9650 3.753
42.9816 4.351
42.9981 4.537
43.0147 5.063
43.0312 6.181
43.0477 7.063
43.0643 7.962
43.0808 9.386
43.0974 10.827
43.1139 12.816
43.1305 15.704
43.1470 18.499
43.1636 22.641
43.1801 27.490
43.1967 33.803
43.2132 39.567
43.2297 45.167
43.2463 48.685
43.2628 47.556
43.2794 42.477
43.2959 36.427
43.3125 30.899
43.3290 28.603
43.3456 26.493
43.3621 26.340
43.3787 22.910
43.3952 18.301
43.4117 14.088
43.4283 10.214
43.4448 7.227
43.4614 5.644
43.4779 4.647
43.4945 3.655
43.5110 3.233
43.5276 2.899
43.5441 2.625
43.5606 2.208
43.5772 2.071
43.5937 2.121
43.6103 1.852
43.6268 1.753
43.6434 1.507
43.6599 1.523
43.6765 1.485
43.6930 1.408
43.7096 1.370
43.7261 1.359
43.7426 1.315
43.7592 1.238
43.7757 1.222
43.7923 1.419
43.8088 1.211
43.8254 1.260
43.8419 1.145
43.8585 1.156
43.8750 1.107
43.8916 1.134
43.9081 1.167
43.9246 0.964
43.9412 1.041
43.9577 1.008
43.9743 1.047
43.9908 1.079
44.0074 0.992
44.0239 1.019
44.0405 1.025
44.0570 1.019
44.0736 0.915
44.0901 0.921
44.1066 1.129
44.1232 0.921
44.1397 0.882
44.1563 0.992
44.1728 0.899
44.1894 0.970
44.2059 0.833
44.2225 0.964
44.2390 1.047
44.2556 0.811
44.2721 0.932
44.2886 0.953
44.3052 0.981
44.3217 0.844
44.3383 0.712
44.3548 0.827
44.3714 0.805
44.3879 0.910
44.4045 0.838
44.4210 0.751
44.4376 0.866
44.4541 0.800
44.4706 0.893
44.4872 0.893
44.5037 0.805
44.5203 0.937
44.5368 0.784
44.5534 0.860
44.5699 0.789
44.5865 0.833
44.6030 0.822
44.6196 0.838
44.6361 0.948
44.6526 0.899
44.6692 0.932
44.6857 0.838
44.7023 0.827
44.7188 0.860
44.7354 0.800
44.7519 0.729
44.7685 0.778
44.7850 0.849
44.8016 0.975
44.8181 0.784
44.8346 0.740
44.8512 0.860
44.8677 0.795
44.8843 0.745
44.9008 0.926
44.9174 0.734
44.9339 0.718
44.9505 0.784
44.9670 0.745
44.9836 0.778
45.0001 0.795
45.0166 0.696
45.0332 0.762
45.0497 0.899
45.0663 0.767
45.0828 0.860
45.0994 0.816
45.1159 0.838
45.1325 0.899
45.1490 0.762
45.1656 0.811
45.1821 0.707
45.1986 0.679
45.2152 0.767
45.2317 0.789
45.2483 0.822
45.2648 0.789
45.2814 0.838
45.2979 0.882
45.3145 0.784
45.3310 0.729
45.3476 0.795
45.3641 0.784
45.3806 0.778
45.3972 0.740
45.4137 0.767
45.4303 0.855
45.4468 0.674
45.4634 0.690
45.4799 0.734
45.4965 0.729
45.5130 0.773
45.5296 0.734
45.5461 0.619
45.5626 0.767
45.5792 0.860
45.5957 0.751
45.6123 0.740
45.6288 0.778
45.6454 0.707
45.6619 0.712
45.6785 0.773
45.6950 0.745
45.7116 0.811
45.7281 0.707
45.7446 0.756
45.7612 0.795
45.7777 0.805
45.7943 0.778
45.8108 0.833
45.8274 0.784
45.8439 0.904
45.8605 0.723
45.8770 0.636
45.8936 0.855
45.9101 0.877
45.9266 0.953
45.9432 0.910
45.9597 0.997
45.9763 0.970
45.9928 1.063
46.0094 1.090
46.0259 1.266
46.0425 1.112
46.0590 1.310
46.0756 1.233
46.0921 1.271
46.1086 1.036
46.1252 1.238
46.1417 0.981
46.1583 1.151
46.1748 1.047
46.1914 0.942
46.2079 0.959
46.2245 0.997
46.2410 0.899
46.2575 0.816
46.2741 0.745
46.2906 0.849
46.3072 0.756
46.3237 0.734
46.3403 0.718
46.3568 0.696
46.3734 0.762
46.3899 0.679
46.4065 0.784
46.4230 0.674
46.4395 0.668
46.4561 0.751
46.4726 0.718
46.4892 0.701
46.5057 0.800
46.5223 0.696
46.5388 0.800
46.5554 0.603
46.5719 0.674
46.5885 0.734
46.6050 0.679
46.6215 0.701
46.6381 0.729
46.6546 0.701
46.6712 0.636
46.6877 0.751
46.7043 0.701
46.7208 0.789
46.7374 0.729
46.7539 0.712
46.7705 0.784
46.7870 0.696
46.8035 0.696
46.8201 0.668
46.8366 0.712
46.8532 0.756
46.8697 0.751
46.8863 0.707
46.9028 0.641
46.9194 0.844
46.9359 0.734
46.9525 0.767
46.9690 0.740
46.9855 0.696
47.0021 0.756
47.0186 0.849
47.0352 0.690
47.0517 0.778
47.0683 0.679
47.0848 0.778
47.1014 0.762
47.1179 0.658
47.1345 0.658
47.1510 0.745
47.1675 0.674
47.1841 0.641
47.2006 0.668
47.2172 0.597
47.2337 0.603
47.2503 0.696
47.2668 0.740
47.2834 0.614
47.2999 0.679
47.3165 0.685
47.3330 0.597
47.3495 0.603
47.3661 0.625
47.3826 0.619
47.3992 0.679
47.4157 0.636
47.4323 0.674
47.4488 0.707
47.4654 0.679
47.4819 0.570
47.4985 0.636
47.5150 0.553
47.5315 0.729
47.5481 0.575
47.5646 0.751
47.5812 0.712
47.5977 0.553
47.6143 0.729
47.6308 0.619
47.6474 0.641
47.6639 0.592
47.6805 0.619
47.6970 0.592
47.7135 0.625
47.7301 0.767
47.7466 0.707
47.7632 0.647
47.7797 0.679
47.7963 0.668
47.8128 0.597
47.8294 0.701
47.8459 0.647
47.8625 0.690
47.8790 0.575
47.8955 0.652
47.9121 0.592
47.9286 0.674
47.9452 0.630
47.9617 0.597
47.9783 0.597
47.9948 0.707
48.0114 0.729
48.0279 0.658
48.0445 0.532
48.0610 0.778
48.0775 0.526
48.0941 0.740
48.1106 0.751
48.1272 0.630
48.1437 0.603
48.1603 0.603
48.1768 0.647
48.1934 0.625
48.2099 0.690
48.2265 0.636
48.2430 0.570
48.2595 0.559
48.2761 0.647
48.2926 0.647
48.3092 0.718
48.3257 0.636
48.3423 0.647
48.3588 0.701
48.3754 0.707
48.3919 0.647
48.4085 0.641
48.4250 0.548
48.4415 0.630
48.4581 0.663
48.4746 0.614
48.4912 0.652
48.5077 0.652
48.5243 0.647
48.5408 0.685
48.5574 0.663
48.5739 0.608
48.5905 0.586
48.6070 0.707
48.6235 0.526
48.6401 0.641
48.6566 0.619
48.6732 0.603
48.6897 0.597
48.7063 0.581
48.7228 0.652
48.7394 0.603
48.7559 0.526
48.7725 0.603
48.7890 0.685
48.8055 0.488
48.8221 0.608
48.8386 0.630
48.8552 0.575
48.8717 0.647
48.8883 0.625
48.9048 0.597
48.9214 0.696
48.9379 0.636
48.9545 0.608
48.9710 0.707
48.9875 0.636
49.0041 0.608
49.0206 0.608
49.0372 0.548
49.0537 0.553
49.0703 0.570
49.0868 0.641
49.1034 0.597
49.1199 0.592
49.1364 0.658
49.1530 0.570
49.1695 0.608
49.1861 0.570
49.2026 0.597
49.2192 0.630
49.2357 0.707
49.2523 0.641
49.2688 0.586
49.2854 0.679
49.3019 0.636
49.3184 0.625
49.3350 0.663
49.3515 0.553
49.3681 0.701
49.3846 0.603
49.4012 0.537
49.4177 0.597
49.4343 0.597
49.4508 0.652
49.4674 0.608
49.4839 0.647
49.5004 0.614
49.5170 0.592
49.5335 0.597
49.5501 0.630
49.5666 0.548
49.5832 0.608
49.5997 0.592
49.6163 0.570
49.6328 0.795
49.6494 0.625
49.6659 0.532
49.6824 0.636
49.6990 0.548
49.7155 0.575
49.7321 0.526
49.7486 0.707
49.7652 0.581
49.7817 0.597
49.7983 0.564
49.8148 0.537
49.8314 0.679
49.8479 0.608
49.8644 0.614
49.8810 0.559
49.8975 0.668
49.9141 0.636
49.9306 0.625
49.9472 0.564
49.9637 0.696
49.9803 0.674
49.9968 0.718
50.0134 0.630
50.0299 0.559
50.0464 0.564
50.0630 0.592
50.0795 0.586
50.0961 0.647
50.1126 0.542
50.1292 0.778
50.1457 0.471
50.1623 0.652
50.1788 0.608
50.1954 0.575
50.2119 0.581
50.2284 0.586
50.2450 0.647
50.2615 0.636
50.2781 0.570
50.2946 0.597
50.3112 0.625
50.3277 0.685
50.3443 0.614
50.3608 0.586
50.3774 0.707
50.3939 0.690
50.4104 0.658
50.4270 0.663
50.4435 0.625
50.4601 0.619
50.4766 0.663
50.4932 0.603
50.5097 0.718
50.5263 0.701
50.5428 0.658
50.5594 0.658
50.5759 0.625
50.5924 0.690
50.6090 0.701
50.6255 0.586
50.6421 0.658
50.6586 0.575
50.6752 0.597
50.6917 0.690
50.7083 0.690
50.7248 0.718
50.7414 0.658
50.7579 0.658
50.7744 0.663
50.7910 0.636
50.8075 0.586
50.8241 0.696
50.8406 0.559
50.8572 0.652
50.8737 0.608
50.8903 0.712
50.9068 0.636
50.9234 0.685
50.9399 0.679
50.9564 0.674
50.9730 0.630
50.9895 0.751
51.0061 0.619
51.0226 0.679
51.0392 0.658
51.0557 0.756
51.0723 0.690
51.0888 0.619
51.1054 0.548
51.1219 0.690
51.1384 0.630
51.1550 0.685
51.1715 0.668
51.1881 0.690
51.2046 0.586
51.2212 0.767
51.2377 0.679
51.2543 0.729
51.2708 0.816
51.2874 0.652
51.3039 0.773
51.3204 0.795
51.3370 0.795
51.3535 0.707
51.3701 0.789
51.3866 0.701
51.4032 0.784
51.4197 0.696
51.4363 0.679
51.4528 0.740
51.4694 0.630
51.4859 0.718
51.5024 0.652
51.5190 0.723
51.5355 0.729
51.5521 0.729
51.5686 0.789
51.5852 0.811
51.6017 0.729
51.6183 0.685
51.6348 0.619
51.6514 0.745
51.6679 0.778
51.6844 0.723
51.7010 0.767
51.7175 0.805
51.7341 0.827
51.7506 0.734
51.7672 0.784
51.7837 0.811
51.8003 0.822
51.8168 0.767
51.8333 0.899
51.8499 0.866
51.8664 0.942
51.8830 0.816
51.8995 0.866
51.9161 0.921
51.9326 1.025
51.9492 0.964
51.9657 1.123
51.9823 1.145
51.9988 1.047
52.0153 1.310
52.0319 1.337
52.0484 1.403
52.0650 1.732
52.0815 1.616
52.0981 1.726
52.1146 1.852
52.1312 2.241
52.1477 2.104
52.1643 2.515
52.1808 2.751
52.1973 3.189
52.2139 3.485
52.2304 4.159
52.2470 4.449
52.2635 5.348
52.2801 6.263
52.2966 7.277
52.3132 8.745
52.3297 10.192
52.3463 11.841
52.3628 14.493
52.3793 16.997
52.3959 18.712
52.4124 20.389
52.4290 20.268
52.4455 17.710
52.4621 15.392
52.4786 13.058
52.4952 11.742
52.5117 10.877
52.5283 10.345
52.5448 11.737
52.5613 10.773
52.5779 9.852
52.5944 8.214
52.6110 6.115
52.6275 4.395
52.6441 3.332
52.6606 2.773
52.6772 2.175
52.6937 1.764
52.7103 1.879
52.7268 1.666
52.7433 1.293
52.7599 1.195
52.7764 1.211
52.7930 1.079
52.8095 1.008
52.8261 1.068
52.8426 0.932
52.8592 0.904
52.8757 0.866
52.8923 1.008
52.9088 0.855
52.9253 0.888
52.9419 0.871
52.9584 0.740
52.9750 0.734
52.9915 0.811
53.0081 0.816
53.0246 0.827
53.0412 0.625
53.0577 0.745
53.0743 0.652
53.0908 0.658
53.1073 0.838
53.1239 0.756
53.1404 0.658
53.1570 0.745
53.1735 0.696
53.1901 0.663
53.2066 0.652
53.2232 0.690
53.2397 0.690
53.2563 0.663
53.2728 0.674
53.2893 0.734
53.3059 0.685
53.3224 0.701
53.3390 0.696
53.3555 0.592
53.3721 0.668
53.3886 0.701
53.4052 0.652
53.4217 0.658
53.4383 0.619
53.4548 0.526
53.4713 0.641
53.4879 0.581
53.5044 0.570
53.5210 0.652
53.5375 0.597
53.5541 0.630
53.5706 0.679
53.5872 0.636
53.6037 0.603
53.6203 0.647
53.6368 0.504
53.6533 0.701
53.6699 0.685
53.6864 0.636
53.7030 0.499
53.7195 0.619
53.7361 0.652
53.7526 0.679
53.7692 0.690
53.7857 0.663
53.8023 0.668
53.8188 0.586
53.8353 0.526
53.8519 0.647
53.8684 0.619
53.8850 0.663
53.9015 0.658
53.9181 0.510
53.9346 0.652
53.9512 0.592
53.9677 0.603
53.9843 0.542
54.0008 0.597
54.0173 0.663
54.0339 0.586
54.0504 0.674
54.0670 0.586
54.0835 0.630
54.1001 0.647
54.1166 0.532
54.1332 0.521
54.1497 0.597
54.1663 0.603
54.1828 0.581
54.1993 0.597
54.2159 0.652
54.2324 0.575
54.2490 0.581
54.2655 0.460
54.2821 0.641
54.2986 0.636
54.3152 0.570
54.3317 0.559
54.3483 0.592
54.3648 0.532
54.3813 0.526
54.3979 0.652
54.4144 0.471
54.4310 0.559
54.4475 0.477
54.4641 0.597
54.4806 0.581
54.4972 0.608
54.5137 0.603
54.5302 0.619
54.5468 0.641
54.5633 0.614
54.5799 0.553
54.5964 0.542
54.6130 0.570
54.6295 0.636
54.6461 0.515
54.6626 0.570
54.6792 0.718
54.6957 0.608
54.7122 0.586
54.7288 0.658
54.7453 0.586
54.7619 0.586
54.7784 0.537
54.7950 0.581
54.8115 0.586
54.8281 0.647
54.8446 0.608
54.8612 0.663
54.8777 0.493
54.8942 0.564
54.9108 0.504
54.9273 0.630
54.9439 0.652
54.9604 0.614
54.9770 0.636
54.9935 0.685
55.0101 0.663
55.0266 0.570
55.0432 0.690
55.0597 0.488
55.0762 0.575
55.0928 0.526
55.1093 0.690
55.1259 0.625
55.1424 0.625
55.1590 0.630
55.1755 0.619
55.1921 0.625
55.2086 0.658
55.2252 0.718
55.2417 0.729
55.2582 0.718
55.2748 0.800
55.2913 0.668
55.3079 0.811
55.3244 0.679
55.3410 0.707
55.3575 0.778
55.3741 0.559
55.3906 0.811
55.4072 0.608
55.4237 0.652
55.4402 0.751
55.4568 0.712
55.4733 0.707
55.4899 0.718
55.5064 0.718
55.5230 0.586
55.5395 0.652
55.5561 0.553
55.5726 0.773
55.5892 0.729
55.6057 0.542
55.6222 0.751
55.6388 0.564
55.6553 0.668
55.6719 0.668
55.6884 0.679
55.7050 0.619
55.7215 0.756
55.7381 0.652
55.7546 0.767
55.7712 0.608
55.7877 0.663
55.8042 0.685
55.8208 0.636
55.8373 0.800
55.8539 0.745
55.8704 0.647
55.8870 0.521
55.9035 0.696
55.9201 0.805
55.9366 0.658
55.9532 0.663
55.9697 0.707
55.9862 0.729
56.0028 0.679
56.0193 0.641
56.0359 0.701
56.0524 0.658
56.0690 0.685
56.0855 0.767
56.1021 0.690
56.1186 0.696
56.1352 0.723
56.1517 0.723
56.1682 0.723
56.1848 0.685
56.2013 0.679
56.2179 0.701
56.2344 0.795
56.2510 0.685
56.2675 0.707
56.2841 0.762
56.3006 0.762
56.3172 0.712
56.3337 0.630
56.3502 0.805
56.3668 0.762
56.3833 0.871
56.3999 0.778
56.4164 0.877
56.4330 0.762
56.4495 0.860
56.4661 0.822
56.4826 0.707
56.4992 0.745
56.5157 0.838
56.5322 0.811
56.5488 0.816
56.5653 0.795
56.5819 0.926
56.5984 0.860
56.6150 0.849
56.6315 0.921
56.6481 0.981
56.6646 0.838
56.6812 1.041
56.6977 0.844
56.7142 0.910
56.7308 1.025
56.7473 1.156
56.7639 1.090
56.7804 1.074
56.7970 0.932
56.8135 1.178
56.8301 1.397
56.8466 1.321
56.8632 1.266
56.8797 1.436
56.8962 1.485
56.9128 1.578
56.9293 1.721
56.9459 1.934
56.9624 2.208
56.9790 2.241
56.9955 2.389
57.0121 2.811
57.0286 3.145
57.0452 3.540
57.0617 3.677
57.0782 4.438
57.0948 4.805
57.1113 5.364
57.1279 5.863
57.1444 6.542
57.1610 7.923
57.1775 8.997
57.1941 10.482
57.2106 12.389
57.2272 14.504
57.2437 16.855
57.2602 20.416
57.2768 24.411
57.2933 28.099
57.3099 33.458
57.3264 36.762
57.3430 38.121
57.3595 38.581
57.3761 34.367
57.3926 30.044
57.4091 24.460
57.4257 21.468
57.4422 19.332
57.4588 19.726
57.4753 19.890
57.4919 20.981
57.5084 19.414
57.5250 17.397
57.5415 14.153
57.5581 11.074
57.5746 8.384
57.5911 5.995
57.6077 4.378
57.6242 3.764
57.6408 3.052
57.6573 2.559
57.6739 2.285
57.6904 2.192
57.7070 2.110
57.7235 1.868
57.7401 1.732
57.7566 1.644
57.7731 1.370
57.7897 1.211
57.8062 1.173
57.8228 1.238
57.8393 1.271
57.8559 1.244
57.8724 1.156
57.8890 1.156
57.9055 1.019
57.9221 1.036
57.9386 0.975
57.9551 0.882
57.9717 1.085
57.9882 1.003
58.0048 0.959
58.0213 0.899
58.0379 0.959
58.0544 0.915
58.0710 0.822
58.0875 0.712
58.1041 0.871
58.1206 0.795
58.1371 0.789
58.1537 0.767
58.1702 0.838
58.1868 0.811
58.2033 0.685
58.2199 0.745
58.2364 0.729
58.2530 0.707
58.2695 0.833
58.2861 0.718
58.3026 0.690
58.3191 0.690
58.3357 0.756
58.3522 0.729
58.3688 0.663
58.3853 0.679
58.4019 0.751
58.4184 0.723
58.4350 0.581
58.4515 0.592
58.4681 0.658
58.4846 0.658
58.5011 0.625
58.5177 0.690
58.5342 0.674
58.5508 0.679
58.5673 0.652
58.5839 0.614
58.6004 0.658
58.6170 0.608
58.6335 0.723
58.6501 0.668
58.6666 0.734
58.6831 0.597
58.6997 0.701
58.7162 0.614
58.7328 0.570
58.7493 0.701
58.7659 0.575
58.7824 0.723
58.7990 0.690
58.8155 0.707
58.8321 0.625
58.8486 0.537
58.8651 0.614
58.8817 0.674
58.8982 0.515
58.9148 0.696
58.9313 0.592
58.9479 0.641
58.9644 0.795
58.9810 0.592
58.9975 0.592
59.0141 0.614
59.0306 0.641
59.0471 0.701
59.0637 0.658
59.0802 0.515
59.0968 0.619
59.1133 0.548
59.1299 0.608
59.1464 0.619
59.1630 0.630
59.1795 0.537
59.1961 0.751
59.2126 0.805
59.2291 0.575
59.2457 0.603
59.2622 0.893
59.2788 0.674
59.2953 0.647
59.3119 0.701
59.3284 0.674
59.3450 0.877
59.3615 0.712
59.3781 0.789
59.3946 0.723
59.4111 0.756
59.4277 0.795
59.4442 0.981
59.4608 0.888
59.4773 0.970
59.4939 1.101
59.5104 0.981
59.5270 1.189
59.5435 1.348
59.5601 1.567
59.5766 1.529
59.5931 1.578
59.6097 1.595
59.6262 1.403
59.6428 1.195
59.6593 1.090
59.6759 1.096
59.6924 1.167
59.7090 1.041
59.7255 1.014
59.7421 0.975
59.7586 0.937
59.7751 1.151
59.7917 0.910
59.8082 0.679
59.8248 0.745
59.8413 0.668
59.8579 0.685
59.8744 0.674
59.8910 0.696
59.9075 0.723
59.9241 0.647
59.9406 0.625
59.9571 0.625
59.9737 0.625
59.9902 0.559
60.0068 0.625
60.0233 0.570
60.0399 0.625
60.0564 0.696
60.0730 0.592
60.0895 0.647
60.1060 0.619
60.1226 0.526
60.1391 0.707
60.1557 0.460
60.1722 0.723
60.1888 0.553
60.2053 0.510
60.2219 0.668
60.2384 0.625
60.2550 0.636
60.2715 0.608
60.2880 0.652
60.3046 0.564
60.3211 0.707
60.3377 0.570
60.3542 0.636
60.3708 0.597
60.3873 0.570
60.4039 0.641
60.4204 0.575
60.4370 0.592
60.4535 0.608
60.4700 0.532
60.4866 0.614
60.5031 0.729
60.5197 0.647
60.5362 0.636
60.5528 0.674
60.5693 0.674
60.5859 0.712
60.6024 0.723
60.6190 0.712
60.6355 0.690
60.6520 0.658
60.6686 0.696
60.6851 0.784
60.7017 0.959
60.7182 0.712
60.7348 0.690
60.7513 0.926
60.7679 1.047
60.7844 0.921
60.8010 1.068
60.8175 1.068
60.8340 1.140
60.8506 1.233
60.8671 1.244
60.8837 1.518
60.9002 1.644
60.9168 1.742
60.9333 1.890
60.9499 1.929
60.9664 2.362
60.9830 2.652
60.9995 2.619
61.0160 2.899
61.0326 2.652
61.0491 2.822
61.0657 2.805
61.0822 3.200
61.0988 3.545
61.1153 3.973
61.1319 3.956
61.1484 3.879
61.1650 3.474
61.1815 3.096
61.1980 2.537
61.2146 2.110
61.2311 2.208
61.2477 2.027
61.2642 1.934
61.2808 2.077
61.2973 2.208
61.3139 1.995
61.3304 1.819
61.3470 1.595
61.3635 1.468
61.3800 0.932
61.3966 0.827
61.4131 0.893
61.4297 0.953
61.4462 0.773
61.4628 0.668
61.4793 0.805
61.4959 0.668
61.5124 0.690
61.5290 0.614
61.5455 0.614
61.5620 0.647
61.5786 0.553
61.5951 0.674
61.6117 0.570
61.6282 0.493
61.6448 0.532
61.6613 0.619
61.6779 0.537
61.6944 0.668
61.7110 0.548
61.7275 0.532
61.7440 0.641
61.7606 0.532
61.7771 0.679
61.7937 0.608
61.8102 0.537
61.8268 0.553
61.8433 0.592
61.8599 0.537
61.8764 0.537
61.8930 0.455
61.9095 0.559
61.9260 0.559
61.9426 0.608
61.9591 0.526
61.9757 0.493
61.9922 0.488
62.0088 0.564
62.0253 0.570
62.0419 0.548
62.0584 0.460
62.0750 0.553
62.0915 0.603
62.1080 0.537
62.1246 0.548
62.1411 0.416
62.1577 0.537
62.1742 0.619
62.1908 0.444
62.2073 0.455
62.2239 0.504
62.2404 0.526
62.2570 0.488
62.2735 0.537
62.2900 0.438
62.3066 0.564
62.3231 0.608
62.3397 0.532
62.3562 0.471
62.3728 0.542
62.3893 0.532
62.4059 0.345
62.4224 0.510
62.4390 0.521
62.4555 0.597
62.4720 0.482
62.4886 0.597
62.5051 0.510
62.5217 0.537
62.5382 0.504
62.5548 0.499
62.5713 0.526
62.5879 0.548
62.6044 0.493
62.6210 0.460
62.6375 0.526
62.6540 0.581
62.6706 0.570
62.6871 0.570
62.7037 0.466
62.7202 0.471
62.7368 0.427
62.7533 0.521
62.7699 0.548
62.7864 0.460
62.8029 0.581
62.8195 0.564
62.8360 0.510
62.8526 0.477
62.8691 0.553
62.8857 0.532
62.9022 0.449
62.9188 0.553
62.9353 0.466
62.9519 0.455
62.9684 0.499
62.9849 0.499
63.0015 0.482
63.0180 0.521
63.0346 0.482
63.0511 0.542
63.0677 0.532
63.0842 0.422
63.1008 0.515
63.1173 0.455
63.1339 0.433
63.1504 0.471
63.1669 0.521
63.1835 0.570
63.2000 0.477
63.2166 0.542
63.2331 0.416
63.2497 0.532
63.2662 0.422
63.2828 0.444
63.2993 0.471
63.3159 0.548
63.3324 0.608
63.3489 0.526
63.3655 0.438
63.3820 0.603
63.3986 0.482
63.4151 0.515
63.4317 0.570
63.4482 0.433
63.4648 0.592
63.4813 0.438
63.4979 0.537
63.5144 0.532
63.5309 0.471
63.5475 0.553
63.5640 0.521
63.5806 0.455
63.5971 0.455
63.6137 0.515
63.6302 0.548
63.6468 0.460
63.6633 0.488
63.6799 0.564
63.6964 0.553
63.7129 0.586
63.7295 0.471
63.7460 0.521
63.7626 0.488
63.7791 0.499
63.7957 0.438
63.8122 0.581
63.8288 0.521
63.8453 0.532
63.8619 0.526
63.8784 0.499
63.8949 0.537
63.9115 0.504
63.9280 0.510
63.9446 0.482
63.9611 0.416
63.9777 0.477
63.9942 0.466
64.0108 0.466
64.0273 0.427
64.0439 0.521
64.0604 0.592
64.0769 0.471
64.0935 0.521
64.1100 0.570
64.1266 0.532
64.1431 0.630
64.1597 0.455
64.1762 0.521
64.1928 0.438
64.2093 0.460
64.2259 0.564
64.2424 0.570
64.2589 0.630
64.2755 0.608
64.2920 0.438
64.3086 0.521
64.3251 0.581
64.3417 0.581
64.3582 0.542
64.3748 0.592
64.3913 0.438
64.4079 0.548
64.4244 0.548
64.4409 0.521
64.4575 0.510
64.4740 0.515
64.4906 0.575
64.5071 0.532
64.5237 0.510
64.5402 0.433
64.5568 0.532
64.5733 0.614
64.5899 0.504
64.6064 0.510
64.6229 0.471
64.6395 0.521
64.6560 0.504
64.6726 0.532
64.6891 0.526
64.7057 0.542
64.7222 0.515
64.7388 0.559
64.7553 0.499
64.7719 0.614
64.7884 0.482
64.8049 0.575
64.8215 0.592
64.8380 0.614
64.8546 0.586
64.8711 0.586
64.8877 0.614
64.9042 0.548
64.9208 0.493
64.9373 0.630
64.9539 0.652
64.9704 0.488
64.9869 0.690
65.0035 0.575
65.0200 0.466
65.0366 0.438
65.0531 0.636
65.0697 0.521
65.0862 0.438
65.1028 0.652
65.1193 0.499
65.1359 0.586
65.1524 0.619
65.1689 0.559
65.1855 0.575
65.2020 0.597
65.2186 0.581
65.2351 0.575
65.2517 0.619
65.2682 0.548
65.2848 0.460
65.3013 0.592
65.3179 0.553
65.3344 0.532
65.3509 0.521
65.3675 0.614
65.3840 0.597
65.4006 0.570
65.4171 0.679
65.4337 0.614
65.4502 0.570
65.4668 0.614
65.4833 0.658
65.4999 0.532
65.5164 0.625
65.5329 0.597
65.5495 0.603
65.5660 0.658
65.5826 0.723
65.5991 0.652
65.6157 0.718
65.6322 0.668
65.6488 0.734
65.6653 0.751
65.6818 0.663
65.6984 0.608
65.7149 0.816
65.7315 0.701
65.7480 0.838
65.7646 0.773
65.7811 0.773
65.7977 0.668
65.8142 0.849
65.8308 0.838
65.8473 0.723
65.8638 0.877
65.8804 1.030
65.8969 0.904
65.9135 1.008
65.9300 1.047
65.9466 1.101
65.9631 1.173
65.9797 1.386
65.9962 1.227
66.0128 1.529
66.0293 1.836
66.0458 1.721
66.0624 2.137
66.0789 2.099
66.0955 2.192
66.1120 2.455
66.1286 2.844
66.1451 3.074
66.1617 3.463
66.1782 3.940
66.1948 4.740
66.2113 5.299
66.2278 5.995
66.2444 7.233
66.2609 7.918
66.2775 9.622
66.2940 11.074
66.3106 12.515
66.3271 13.677
66.3437 13.375
66.3602 13.222
66.3768 11.540
66.3933 9.962
66.4098 8.411
66.4264 6.997
66.4429 6.553
66.4595 6.718
66.4760 6.800
66.4926 6.942
66.5091 7.441
66.5257 7.282
66.5422 7.003
66.5588 6.192
66.5753 5.030
66.5918 3.814
66.6084 3.211
66.6249 2.362
66.6415 1.896
66.6580 1.693
66.6746 1.463
66.6911 1.359
66.7077 1.195
66.7242 1.288
66.7408 1.151
66.7573 1.052
66.7738 1.008
66.7904 0.948
66.8069 0.953
66.8235 0.849
66.8400 0.860
66.8566 0.910
66.8731 0.751
66.8897 0.816
66.9062 0.860
66.9228 0.910
66.9393 0.789
66.9558 0.756
66.9724 0.690
66.9889 0.822
67.0055 0.893
67.0220 0.942
67.0386 0.745
67.0551 0.789
67.0717 0.734
67.0882 0.740
67.1048 0.773
67.1213 0.784
67.1378 0.762
67.1544 0.767
67.1709 0.767
67.1875 0.729
67.2040 0.734
67.2206 0.778
67.2371 0.745
67.2537 0.773
67.2702 0.964
67.2868 0.756
67.3033 0.904
67.3198 0.773
67.3364 0.789
67.3529 0.740
67.3695 0.712
67.3860 0.882
67.4026 0.882
67.4191 0.904
67.4357 0.789
67.4522 1.063
67.4688 0.959
67.4853 0.926
67.5018 0.888
67.5184 0.910
67.5349 1.014
67.5515 1.063
67.5680 0.970
67.5846 1.173
67.6011 1.205
67.6177 1.375
67.6342 1.567
67.6508 1.507
67.6673 1.529
67.6838 1.797
67.7004 1.852
67.7169 2.268
67.7335 2.274
67.7500 2.608
67.7666 2.729
67.7831 3.205
67.7997 3.556
67.8162 3.715
67.8328 4.301
67.8493 5.112
67.8658 5.737
67.8824 7.123
67.8989 7.386
67.9155 8.712
67.9320 10.153
67.9486 12.159
67.9651 14.340
67.9817 16.395
67.9982 18.718
68.0148 19.671
68.0313 20.493
68.0478 19.381
68.0644 17.134
68.0809 14.762
68.0975 11.792
68.1140 9.874
68.1306 9.748
68.1471 9.458
68.1637 9.463
68.1802 9.863
68.1968 10.290
68.2133 10.532
68.2298 10.433
68.2464 9.375
68.2629 7.896
68.2795 6.247
68.2960 4.608
68.3126 3.819
68.3291 2.827
68.3457 2.312
68.3622 1.830
68.3787 1.836
68.3953 1.644
68.4118 1.386
68.4284 1.260
68.4449 1.145
68.4615 1.162
68.4780 0.981
68.4946 0.964
68.5111 0.882
68.5277 0.893
68.5442 0.910
68.5607 0.849
68.5773 0.833
68.5938 0.778
68.6104 0.778
68.6269 0.751
68.6435 0.745
68.6600 0.723
68.6766 0.816
68.6931 0.630
68.7097 0.690
68.7262 0.652
68.7427 0.663
68.7593 0.564
68.7758 0.712
68.7924 0.597
68.8089 0.548
68.8255 0.668
68.8420 0.625
68.8586 0.614
68.8751 0.559
68.8917 0.625
68.9082 0.510
68.9247 0.575
68.9413 0.537
68.9578 0.471
68.9744 0.658
68.9909 0.548
69.0075 0.647
69.0240 0.542
69.0406 0.586
69.0571 0.559
69.0737 0.510
69.0902 0.504
69.1067 0.537
69.1233 0.625
69.1398 0.575
69.1564 0.548
69.1729 0.619
69.1895 0.493
69.2060 0.537
69.2226 0.548
69.2391 0.575
69.2557 0.515
69.2722 0.597
69.2887 0.537
69.3053 0.438
69.3218 0.532
69.3384 0.597
69.3549 0.586
69.3715 0.597
69.3880 0.471
69.4046 0.515
69.4211 0.515
69.4377 0.466
69.4542 0.553
69.4707 0.449
69.4873 0.493
69.5038 0.499
69.5204 0.526
69.5369 0.482
69.5535 0.411
69.5700 0.542
69.5866 0.395
69.6031 0.493
69.6197 0.455
69.6362 0.559
69.6527 0.510
69.6693 0.504
69.6858 0.504
69.7024 0.515
69.7189 0.521
69.7355 0.416
69.7520 0.471
69.7686 0.477
69.7851 0.477
69.8017 0.466
69.8182 0.444
69.8347 0.515
69.8513 0.460
69.8678 0.570
69.8844 0.592
69.9009 0.455
69.9175 0.460
69.9340 0.537
69.9506 0.564
69.9671 0.586
69.9837 0.625
70.0002 0.504
