'Id: "" Comment: "" Operator: "Administrator" Anode: "Cu" Scantype: "Locked Coupled" TimePerStep: "182.5" X: "0" Y: "0" Z: "0" 
20.0000 2.279
20.0165 2.389
20.0331 2.526
20.0496 2.542
20.0662 2.553
20.0827 2.477
20.0993 2.384
20.1158 2.416
20.1324 2.619
20.1489 2.367
20.1655 2.356
20.1820 2.510
20.1985 2.351
20.2151 2.395
20.2316 2.345
20.2482 2.482
20.2647 2.252
20.2813 2.466
20.2978 2.340
20.3144 2.340
20.3309 2.586
20.3475 2.427
20.3640 2.334
20.3805 2.367
20.3971 2.296
20.4136 2.274
20.4302 2.345
20.4467 2.290
20.4633 2.301
20.4798 2.285
20.4964 2.433
20.5129 2.164
20.5295 2.400
20.5460 2.460
20.5625 2.444
20.5791 2.597
20.5956 2.603
20.6122 2.597
20.6287 2.477
20.6453 2.279
20.6618 2.279
20.6784 2.411
20.6949 2.493
20.7115 2.395
20.7280 2.230
20.7445 2.455
20.7611 2.247
20.7776 2.236
20.7942 2.258
20.8107 2.427
20.8273 2.055
20.8438 2.356
20.8604 2.175
20.8769 2.268
20.8935 2.247
20.9100 2.132
20.9265 2.241
20.9431 2.148
20.9596 2.444
20.9762 2.296
20.9927 2.307
21.0093 2.427
21.0258 2.422
21.0424 2.296
21.0589 2.241
21.0755 2.323
21.0920 2.148
21.1085 2.192
21.1251 2.159
21.1416 1.995
21.1582 2.373
21.1747 2.493
21.1913 2.274
21.2078 2.488
21.2244 2.104
21.2409 2.521
21.2575 2.197
21.2740 2.290
21.2905 2.312
21.3071 2.197
21.3236 2.164
21.3402 2.340
21.3567 2.279
21.3733 2.351
21.3898 2.214
21.4064 2.274
21.4229 2.214
21.4394 2.301
21.4560 2.477
21.4725 2.121
21.4891 2.033
21.5056 2.137
21.5222 2.493
21.5387 2.241
21.5553 2.186
21.5718 2.230
21.5884 2.373
21.6049 2.148
21.6214 2.132
21.6380 2.268
21.6545 2.071
21.6711 2.170
21.6876 2.389
21.7042 2.203
21.7207 2.252
21.7373 2.093
21.7538 2.159
21.7704 2.060
21.7869 2.384
21.8034 2.241
21.8200 2.153
21.8365 2.230
21.8531 2.219
21.8696 2.181
21.8862 2.104
21.9027 2.110
21.9193 2.192
21.9358 2.241
21.9524 2.345
21.9689 2.033
21.9854 2.301
22.0020 2.164
22.0185 2.214
22.0351 2.241
22.0516 2.175
22.0682 2.005
22.0847 2.060
22.1013 2.159
22.1178 2.066
22.1344 2.164
22.1509 2.099
22.1674 2.115
22.1840 2.121
22.2005 2.241
22.2171 2.104
22.2336 2.164
22.2502 2.055
22.2667 2.159
22.2833 1.890
22.2998 2.203
22.3164 1.907
22.3329 1.995
22.3494 2.071
22.3660 2.055
22.3825 2.148
22.3991 2.016
22.4156 2.011
22.4322 2.088
22.4487 2.318
22.4653 2.186
22.4818 2.104
22.4984 2.378
22.5149 2.159
22.5314 2.022
22.5480 2.005
22.5645 2.005
22.5811 2.060
22.5976 2.060
22.6142 1.962
22.6307 2.049
22.6473 2.055
22.6638 2.219
22.6804 2.049
22.6969 1.814
22.7134 2.038
22.7300 1.923
22.7465 1.951
22.7631 2.066
22.7796 1.995
22.7962 1.962
22.8127 1.912
22.8293 2.049
22.8458 1.984
22.8624 1.962
22.8789 2.110
22.8954 2.005
22.9120 2.071
22.9285 2.170
22.9451 2.022
22.9616 1.874
22.9782 2.132
22.9947 2.038
23.0113 2.022
23.0278 2.016
23.0444 1.868
23.0609 2.055
23.0774 1.984
23.0940 1.951
23.1105 2.422
23.1271 2.285
23.1436 2.022
23.1602 1.945
23.1767 1.945
23.1933 2.044
23.2098 1.956
23.2264 2.093
23.2429 1.912
23.2594 2.219
23.2760 1.984
23.2925 1.934
23.3091 1.879
23.3256 2.033
23.3422 1.967
23.3587 1.726
23.3753 1.786
23.3918 1.852
23.4084 1.962
23.4249 1.918
23.4414 1.901
23.4580 1.858
23.4745 1.929
23.4911 2.033
23.5076 1.989
23.5242 2.011
23.5407 1.825
23.5573 1.847
23.5738 2.071
23.5904 1.890
23.6069 1.934
23.6234 1.912
23.6400 1.721
23.6565 2.049
23.6731 1.847
23.6896 2.049
23.7062 1.984
23.7227 1.956
23.7393 1.885
23.7558 2.077
23.7724 2.071
23.7889 2.022
23.8054 2.033
23.8220 2.093
23.8385 2.142
23.8551 1.945
23.8716 2.049
23.8882 1.907
23.9047 2.175
23.9213 2.049
23.9378 2.186
23.9544 1.945
23.9709 2.104
23.9874 2.022
24.0040 1.967
24.0205 2.175
24.0371 2.329
24.0536 2.488
24.0702 2.071
24.0867 2.164
24.1033 2.214
24.1198 2.312
24.1364 2.263
24.1529 2.214
24.1694 2.318
24.1860 2.367
24.2025 2.378
24.2191 2.488
24.2356 2.510
24.2522 2.362
24.2687 2.647
24.2853 2.455
24.3018 2.729
24.3183 2.340
24.3349 2.548
24.3514 2.504
24.3680 2.482
24.3845 2.570
24.4011 2.696
24.4176 2.427
24.4342 2.652
24.4507 2.521
24.4673 2.395
24.4838 2.597
24.5003 2.515
24.5169 2.773
24.5334 2.532
24.5500 2.663
24.5665 2.532
24.5831 2.548
24.5996 2.564
24.6162 2.762
24.6327 2.696
24.6493 2.663
24.6658 2.696
24.6823 2.811
24.6989 2.597
24.7154 2.800
24.7320 2.696
24.7485 2.866
24.7651 2.679
24.7816 2.767
24.7982 2.488
24.8147 2.521
24.8313 2.636
24.8478 2.718
24.8643 2.729
24.8809 2.575
24.8974 2.597
24.9140 2.630
24.9305 2.619
24.9471 2.740
24.9636 2.970
24.9802 2.668
24.9967 3.041
25.0133 2.926
25.0298 2.636
25.0463 2.553
25.0629 2.723
25.0794 2.674
25.0960 2.855
25.1125 2.888
25.1291 3.151
25.1456 2.745
25.1622 3.096
25.1787 3.118
25.1953 3.205
25.2118 3.671
25.2283 3.496
25.2449 3.770
25.2614 4.153
25.2780 4.521
25.2945 5.003
25.3111 5.288
25.3276 5.830
25.3442 7.101
25.3607 7.973
25.3773 9.151
25.3938 11.578
25.4103 13.332
25.4269 17.419
25.4434 21.836
25.4600 26.762
25.4765 33.123
25.4931 37.326
25.5096 36.734
25.5262 35.600
25.5427 31.562
25.5593 26.778
25.5758 22.296
25.5923 17.638
25.6089 13.595
25.6254 10.778
25.6420 7.841
25.6585 6.208
25.6751 5.090
25.6916 4.016
25.7082 3.781
25.7247 3.677
25.7413 3.392
25.7578 3.315
25.7743 3.123
25.7909 2.992
25.8074 2.893
25.8240 2.718
25.8405 2.674
25.8571 2.789
25.8736 2.378
25.8902 2.564
25.9067 2.504
25.9233 2.564
25.9398 2.679
25.9563 2.652
25.9729 2.400
25.9894 2.542
26.0060 2.455
26.0225 2.356
26.0391 2.427
26.0556 2.477
26.0722 2.367
26.0887 2.307
26.1053 2.126
26.1218 2.449
26.1383 2.148
26.1549 2.263
26.1714 2.203
26.1880 2.427
26.2045 2.153
26.2211 2.252
26.2376 2.378
26.2542 2.192
26.2707 2.258
26.2873 2.033
26.3038 2.214
26.3203 2.236
26.3369 2.208
26.3534 2.263
26.3700 2.055
26.3865 2.142
26.4031 2.115
26.4196 2.148
26.4362 2.170
26.4527 2.236
26.4693 2.121
26.4858 2.099
26.5023 2.208
26.5189 2.071
26.5354 2.132
26.5520 1.995
26.5685 2.115
26.5851 1.929
26.6016 2.038
26.6182 2.186
26.6347 2.121
26.6513 1.989
26.6678 2.038
26.6843 2.011
26.7009 2.038
26.7174 2.044
26.7340 2.099
26.7505 1.973
26.7671 2.038
26.7836 1.973
26.8002 1.995
26.8167 1.847
26.8333 1.984
26.8498 2.088
26.8663 2.148
26.8829 2.038
26.8994 1.962
26.9160 2.022
26.9325 1.989
26.9491 2.060
26.9656 1.940
26.9822 2.104
26.9987 1.940
27.0152 2.038
27.0318 1.945
27.0483 1.830
27.0649 2.038
27.0814 1.918
27.0980 2.060
27.1145 1.978
27.1311 1.890
27.1476 1.885
27.1642 1.803
27.1807 2.000
27.1972 2.038
27.2138 2.296
27.2303 2.038
27.2469 1.901
27.2634 1.836
27.2800 1.825
27.2965 1.825
27.3131 1.934
27.3296 1.803
27.3462 1.912
27.3627 1.742
27.3792 1.836
27.3958 1.901
27.4123 1.830
27.4289 1.759
27.4454 1.775
27.4620 1.956
27.4785 1.852
27.4951 1.863
27.5116 1.786
27.5282 1.967
27.5447 1.852
27.5612 1.682
27.5778 1.748
27.5943 1.715
27.6109 1.781
27.6274 1.759
27.6440 1.901
27.6605 1.819
27.6771 1.737
27.6936 1.732
27.7102 1.726
27.7267 1.726
27.7432 1.726
27.7598 1.836
27.7763 1.710
27.7929 1.863
27.8094 1.688
27.8260 1.836
27.8425 1.781
27.8591 1.595
27.8756 1.841
27.8922 1.775
27.9087 1.682
27.9252 1.759
27.9418 1.753
27.9583 1.858
27.9749 1.644
27.9914 1.912
28.0080 1.704
28.0245 1.775
28.0411 1.753
28.0576 1.512
28.0742 1.737
28.0907 1.715
28.1072 1.529
28.1238 1.611
28.1403 1.737
28.1569 1.644
28.1734 1.753
28.1900 1.595
28.2065 1.578
28.2231 1.852
28.2396 1.715
28.2562 1.523
28.2727 1.759
28.2892 1.644
28.3058 1.677
28.3223 1.600
28.3389 1.825
28.3554 1.578
28.3720 1.638
28.3885 1.556
28.4051 1.414
28.4216 1.775
28.4382 1.551
28.4547 1.649
28.4712 1.666
28.4878 1.622
28.5043 1.507
28.5209 1.529
28.5374 1.682
28.5540 1.715
28.5705 1.523
28.5871 1.403
28.6036 1.666
28.6202 1.633
28.6367 1.485
28.6532 1.699
28.6698 1.403
28.6863 1.622
28.7029 1.540
28.7194 1.512
28.7360 1.578
28.7525 1.458
28.7691 1.512
28.7856 1.633
28.8022 1.578
28.8187 1.562
28.8352 1.529
28.8518 1.529
28.8683 1.534
28.8849 1.468
28.9014 1.627
28.9180 1.573
28.9345 1.693
28.9511 1.622
28.9676 1.490
28.9842 1.447
29.0007 1.562
29.0172 1.534
29.0338 1.551
29.0503 1.589
29.0669 1.611
29.0834 1.540
29.1000 1.611
29.1165 1.644
29.1331 1.436
29.1496 1.545
29.1662 1.584
29.1827 1.595
29.1992 1.485
29.2158 1.529
29.2323 1.441
29.2489 1.479
29.2654 1.370
29.2820 1.458
29.2985 1.386
29.3151 1.425
29.3316 1.468
29.3482 1.512
29.3647 1.479
29.3812 1.605
29.3978 1.529
29.4143 1.589
29.4309 1.381
29.4474 1.501
29.4640 1.375
29.4805 1.326
29.4971 1.337
29.5136 1.463
29.5302 1.375
29.5467 1.425
29.5632 1.490
29.5798 1.436
29.5963 1.490
29.6129 1.507
29.6294 1.271
29.6460 1.666
29.6625 1.392
29.6791 1.584
29.6956 1.425
29.7121 1.474
29.7287 1.479
29.7452 1.375
29.7618 1.425
29.7783 1.375
29.7949 1.595
29.8114 1.348
29.8280 1.277
29.8445 1.238
29.8611 1.397
29.8776 1.425
29.8941 1.441
29.9107 1.501
29.9272 1.310
29.9438 1.315
29.9603 1.529
29.9769 1.364
29.9934 1.463
30.0100 1.293
30.0265 1.315
30.0431 1.370
30.0596 1.408
30.0761 1.370
30.0927 1.441
30.1092 1.321
30.1258 1.441
30.1423 1.364
30.1589 1.282
30.1754 1.332
30.1920 1.315
30.2085 1.397
30.2251 1.173
30.2416 1.211
30.2581 1.222
30.2747 1.392
30.2912 1.430
30.3078 1.299
30.3243 1.200
30.3409 1.282
30.3574 1.321
30.3740 1.337
30.3905 1.392
30.4071 1.436
30.4236 1.332
30.4401 1.238
30.4567 1.266
30.4732 1.266
30.4898 1.233
30.5063 1.348
30.5229 1.238
30.5394 1.348
30.5560 1.233
30.5725 1.178
30.5891 1.178
30.6056 1.430
30.6221 1.293
30.6387 1.315
30.6552 1.342
30.6718 1.222
30.6883 1.266
30.7049 1.266
30.7214 1.293
30.7380 1.430
30.7545 1.386
30.7711 1.392
30.7876 1.238
30.8041 1.271
30.8207 1.140
30.8372 1.408
30.8538 1.386
30.8703 1.112
30.8869 1.337
30.9034 1.211
30.9200 1.145
30.9365 1.392
30.9531 1.129
30.9696 1.321
30.9861 1.277
31.0027 1.425
31.0192 1.299
31.0358 1.353
31.0523 1.288
31.0689 1.348
31.0854 1.332
31.1020 1.233
31.1185 1.173
31.1351 1.227
31.1516 1.277
31.1681 1.282
31.1847 1.195
31.2012 1.233
31.2178 1.216
31.2343 1.173
31.2509 1.145
31.2674 1.326
31.2840 1.359
31.3005 1.195
31.3171 1.156
31.3336 1.299
31.3501 1.068
31.3667 1.195
31.3832 1.189
31.3998 1.304
31.4163 1.195
31.4329 1.173
31.4494 1.189
31.4660 1.167
31.4825 1.222
31.4991 1.222
31.5156 1.359
31.5321 1.310
31.5487 1.227
31.5652 1.112
31.5818 1.205
31.5983 1.205
31.6149 1.156
31.6314 1.074
31.6480 1.342
31.6645 1.151
31.6811 1.145
31.6976 1.227
31.7141 1.101
31.7307 1.162
31.7472 1.112
31.7638 1.036
31.7803 1.167
31.7969 1.074
31.8134 1.123
31.8300 1.249
31.8465 1.162
31.8631 1.079
31.8796 1.167
31.8961 1.205
31.9127 1.068
31.9292 1.047
31.9458 1.112
31.9623 1.167
31.9789 1.178
31.9954 1.090
32.0120 1.041
32.0285 1.052
32.0451 1.304
32.0616 1.156
32.0781 1.200
32.0947 1.129
32.1112 1.151
32.1278 1.178
32.1443 1.195
32.1609 1.255
32.1774 1.151
32.1940 1.222
32.2105 0.970
32.2271 1.068
32.2436 1.025
32.2601 1.205
32.2767 1.145
32.2932 1.222
32.3098 1.079
32.3263 1.145
32.3429 1.074
32.3594 1.003
32.3760 1.129
32.3925 1.260
32.4091 1.047
32.4256 0.992
32.4421 1.014
32.4587 1.014
32.4752 1.140
32.4918 0.964
32.5083 1.118
32.5249 1.030
32.5414 0.959
32.5580 1.200
32.5745 1.118
32.5910 0.981
32.6076 1.063
32.6241 1.019
32.6407 1.019
32.6572 0.964
32.6738 1.041
32.6903 1.123
32.7069 1.255
32.7234 1.052
32.7400 1.107
32.7565 1.096
32.7730 1.184
32.7896 1.074
32.8061 1.118
32.8227 1.112
32.8392 0.986
32.8558 0.981
32.8723 0.937
32.8889 1.079
32.9054 1.156
32.9220 1.074
32.9385 1.151
32.9550 1.030
32.9716 0.959
32.9881 1.008
33.0047 1.014
33.0212 0.948
33.0378 1.025
33.0543 1.036
33.0709 0.915
33.0874 1.036
33.1040 1.096
33.1205 0.981
33.1370 0.997
33.1536 1.107
33.1701 0.855
33.1867 1.074
33.2032 1.074
33.2198 1.205
33.2363 1.145
33.2529 1.129
33.2694 1.047
33.2860 0.992
33.3025 1.058
33.3190 1.030
33.3356 1.085
33.3521 1.068
33.3687 1.008
33.3852 1.167
33.4018 0.986
33.4183 0.997
33.4349 1.041
33.4514 1.019
33.4680 1.008
33.4845 0.992
33.5010 0.959
33.5176 1.008
33.5341 1.030
33.5507 1.068
33.5672 1.123
33.5838 0.986
33.6003 1.123
33.6169 1.118
33.6334 0.910
33.6500 1.008
33.6665 1.140
33.6830 1.107
33.6996 1.074
33.7161 1.167
33.7327 1.036
33.7492 1.085
33.7658 1.096
33.7823 1.090
33.7989 1.195
33.8154 1.052
33.8320 1.238
33.8485 1.315
33.8650 1.205
33.8816 1.266
33.8981 1.216
33.9147 1.282
33.9312 1.293
33.9478 1.282
33.9643 1.195
33.9809 1.397
33.9974 1.200
34.0140 1.195
34.0305 1.205
34.0470 1.238
34.0636 1.200
34.0801 1.386
34.0967 1.249
34.1132 1.353
34.1298 1.277
34.1463 1.342
34.1629 1.310
34.1794 1.299
34.1960 1.326
34.2125 1.238
34.2290 1.304
34.2456 1.315
34.2621 1.364
34.2787 1.304
34.2952 1.332
34.3118 1.266
34.3283 1.282
34.3449 1.370
34.3614 1.518
34.3780 1.337
34.3945 1.479
34.4110 1.523
34.4276 1.611
34.4441 1.436
34.4607 1.463
34.4772 1.655
34.4938 1.447
34.5103 1.611
34.5269 1.584
34.5434 1.627
34.5600 1.693
34.5765 1.693
34.5930 1.792
34.6096 1.945
34.6261 1.896
34.6427 2.104
34.6592 2.225
34.6758 2.334
34.6923 2.548
34.7089 2.499
34.7254 3.101
34.7420 3.244
34.7585 3.392
34.7750 3.715
34.7916 4.268
34.8081 4.751
34.8247 5.496
34.8412 6.307
34.8578 7.342
34.8743 8.800
34.8909 10.164
34.9074 12.356
34.9240 14.466
34.9405 17.978
34.9570 22.110
34.9736 27.436
34.9901 33.995
35.0067 40.964
35.0232 46.893
35.0398 49.414
35.0563 46.849
35.0729 43.227
35.0894 37.293
35.1060 32.515
35.1225 29.715
35.1390 27.047
35.1556 20.674
35.1721 16.488
35.1887 11.704
35.2052 8.279
35.2218 6.148
35.2383 5.156
35.2549 3.879
35.2714 3.518
35.2879 3.090
35.3045 2.559
35.3210 2.679
35.3376 2.318
35.3541 2.241
35.3707 2.225
35.3872 1.934
35.4038 1.775
35.4203 1.693
35.4369 1.551
35.4534 1.468
35.4699 1.562
35.4865 1.474
35.5030 1.644
35.5196 1.534
35.5361 1.523
35.5527 1.479
35.5692 1.474
35.5858 1.403
35.6023 1.359
35.6189 1.463
35.6354 1.364
35.6519 1.397
35.6685 1.425
35.6850 1.260
35.7016 1.315
35.7181 1.145
35.7347 1.458
35.7512 1.140
35.7678 1.036
35.7843 1.184
35.8009 1.238
35.8174 1.299
35.8339 1.145
35.8505 1.162
35.8670 1.200
35.8836 1.205
35.9001 1.140
35.9167 0.964
35.9332 1.129
35.9498 1.233
35.9663 1.310
35.9829 1.211
35.9994 1.173
36.0159 1.249
36.0325 1.118
36.0490 1.079
36.0656 1.134
36.0821 1.085
36.0987 1.134
36.1152 1.167
36.1318 1.178
36.1483 1.003
36.1649 1.058
36.1814 1.058
36.1979 1.123
36.2145 1.184
36.2310 1.068
36.2476 1.068
36.2641 1.178
36.2807 1.200
36.2972 1.036
36.3138 1.156
36.3303 1.101
36.3469 1.118
36.3634 1.184
36.3799 1.178
36.3965 1.211
36.4130 1.118
36.4296 1.195
36.4461 1.140
36.4627 1.074
36.4792 1.079
36.4958 1.118
36.5123 1.233
36.5289 1.036
36.5454 1.260
36.5619 0.937
36.5785 1.118
36.5950 1.041
36.6116 1.282
36.6281 1.085
36.6447 1.107
36.6612 1.134
36.6778 1.074
36.6943 1.036
36.7109 1.145
36.7274 1.189
36.7439 1.090
36.7605 1.167
36.7770 1.036
36.7936 1.162
36.8101 1.047
36.8267 1.173
36.8432 1.096
36.8598 1.052
36.8763 1.123
36.8929 0.992
36.9094 1.041
36.9259 1.167
36.9425 1.112
36.9590 1.178
36.9756 1.047
36.9921 1.156
37.0087 1.112
37.0252 1.140
37.0418 1.112
37.0583 1.134
37.0749 1.151
37.0914 1.151
37.1079 1.195
37.1245 1.129
37.1410 1.123
37.1576 1.332
37.1741 1.282
37.1907 1.222
37.2072 1.260
37.2238 1.452
37.2403 1.134
37.2569 1.397
37.2734 1.337
37.2899 1.266
37.3065 1.479
37.3230 1.721
37.3396 1.682
37.3561 1.841
37.3727 1.984
37.3892 2.055
37.4058 2.433
37.4223 2.537
37.4389 2.526
37.4554 3.019
37.4719 3.321
37.4885 3.830
37.5050 4.186
37.5216 5.195
37.5381 5.819
37.5547 6.745
37.5712 8.225
37.5878 10.110
37.6043 12.647
37.6209 14.499
37.6374 17.819
37.6539 19.474
37.6705 20.521
37.6870 18.373
37.7036 15.962
37.7201 13.759
37.7367 12.586
37.7532 11.814
37.7698 9.890
37.7863 8.696
37.8029 7.019
37.8194 5.244
37.8359 3.759
37.8525 3.036
37.8690 2.729
37.8856 2.115
37.9021 1.956
37.9187 1.879
37.9352 1.540
37.9518 1.589
37.9683 1.518
37.9848 1.441
38.0014 1.321
38.0179 1.260
38.0345 1.112
38.0510 1.299
38.0676 1.156
38.0841 1.156
38.1007 1.151
38.1172 1.189
38.1338 1.184
38.1503 1.058
38.1668 1.173
38.1834 0.975
38.1999 1.118
38.2165 1.025
38.2330 1.090
38.2496 1.134
38.2661 1.079
38.2827 1.107
38.2992 1.008
38.3158 1.085
38.3323 1.129
38.3488 1.047
38.3654 0.964
38.3819 1.134
38.3985 1.068
38.4150 0.964
38.4316 1.019
38.4481 0.904
38.4647 0.942
38.4812 1.112
38.4978 1.030
38.5143 1.019
38.5308 1.068
38.5474 1.063
38.5639 1.052
38.5805 0.953
38.5970 0.953
38.6136 1.019
38.6301 0.921
38.6467 0.975
38.6632 0.789
38.6798 0.992
38.6963 1.096
38.7128 1.036
38.7294 0.981
38.7459 0.959
38.7625 1.058
38.7790 0.964
38.7956 0.915
38.8121 1.030
38.8287 0.981
38.8452 1.019
38.8618 1.085
38.8783 1.058
38.8948 1.041
38.9114 1.058
38.9279 0.986
38.9445 0.937
38.9610 0.926
38.9776 0.953
38.9941 0.975
39.0107 0.882
39.0272 0.871
39.0438 0.948
39.0603 0.904
39.0768 0.789
39.0934 1.074
39.1099 0.910
39.1265 0.975
39.1430 0.844
39.1596 0.899
39.1761 0.942
39.1927 0.871
39.2092 0.838
39.2258 0.882
39.2423 0.964
39.2588 0.893
39.2754 0.937
39.2919 0.921
39.3085 0.948
39.3250 0.975
39.3416 0.882
39.3581 0.888
39.3747 0.844
39.3912 0.959
39.4078 0.904
39.4243 1.008
39.4408 0.893
39.4574 0.767
39.4739 0.975
39.4905 0.833
39.5070 0.833
39.5236 0.882
39.5401 0.899
39.5567 0.833
39.5732 0.959
39.5898 0.932
39.6063 0.910
39.6228 0.970
39.6394 0.910
39.6559 1.047
39.6725 0.800
39.6890 0.921
39.7056 0.899
39.7221 0.816
39.7387 0.877
39.7552 0.893
39.7718 0.899
39.7883 0.937
39.8048 0.844
39.8214 0.871
39.8379 0.882
39.8545 0.816
39.8710 0.877
39.8876 0.800
39.9041 1.003
39.9207 0.915
39.9372 0.888
39.9538 0.784
39.9703 0.888
39.9868 0.942
40.0034 0.915
40.0199 0.833
40.0365 0.899
40.0530 0.778
40.0696 0.734
40.0861 0.871
40.1027 0.822
40.1192 0.871
40.1358 0.948
40.1523 1.019
40.1688 0.838
40.1854 0.904
40.2019 0.729
40.2185 0.866
40.2350 0.696
40.2516 0.937
40.2681 0.849
40.2847 0.838
40.3012 0.849
40.3178 0.948
40.3343 0.877
40.3508 0.860
40.3674 0.904
40.3839 0.871
40.4005 0.921
40.4170 0.921
40.4336 0.910
40.4501 0.975
40.4667 0.778
40.4832 0.740
40.4998 0.888
40.5163 0.948
40.5328 0.811
40.5494 0.844
40.5659 0.855
40.5825 0.827
40.5990 0.942
40.6156 0.773
40.6321 0.838
40.6487 0.893
40.6652 0.833
40.6818 0.800
40.6983 0.827
40.7148 0.778
40.7314 0.855
40.7479 0.805
40.7645 0.811
40.7810 0.767
40.7976 0.822
40.8141 0.822
40.8307 0.751
40.8472 0.899
40.8637 0.822
40.8803 0.740
40.8968 0.849
40.9134 0.877
40.9299 0.871
40.9465 0.882
40.9630 0.860
40.9796 0.844
40.9961 0.904
41.0127 0.921
41.0292 0.663
41.0457 0.816
41.0623 0.696
41.0788 0.838
41.0954 0.877
41.1119 0.822
41.1285 0.811
41.1450 0.789
41.1616 0.696
41.1781 0.827
41.1947 0.789
41.2112 0.910
41.2277 0.915
41.2443 0.910
41.2608 0.888
41.2774 0.838
41.2939 1.003
41.3105 0.888
41.3270 0.964
41.3436 0.964
41.3601 0.932
41.3767 0.932
41.3932 0.910
41.4097 1.014
41.4263 0.893
41.4428 0.997
41.4594 1.052
41.4759 1.129
41.4925 1.255
41.5090 1.178
41.5256 1.052
41.5421 1.151
41.5587 1.200
41.5752 1.074
41.5917 1.200
41.6083 1.167
41.6248 1.096
41.6414 1.326
41.6579 1.129
41.6745 1.085
41.6910 0.981
41.7076 1.014
41.7241 1.008
41.7407 1.068
41.7572 0.910
41.7737 1.047
41.7903 1.019
41.8068 1.068
41.8234 1.041
41.8399 0.882
41.8565 1.063
41.8730 1.025
41.8896 1.019
41.9061 1.068
41.9227 1.058
41.9392 0.942
41.9557 0.953
41.9723 1.058
41.9888 1.063
42.0054 1.178
42.0219 1.090
42.0385 0.948
42.0550 0.948
42.0716 0.964
42.0881 0.975
42.1047 1.145
42.1212 0.942
42.1377 0.904
42.1543 1.052
42.1708 1.134
42.1874 0.964
42.2039 0.975
42.2205 1.014
42.2370 0.948
42.2536 1.167
42.2701 1.047
42.2867 0.997
42.3032 0.953
42.3197 0.986
42.3363 0.904
42.3528 0.997
42.3694 1.085
42.3859 1.079
42.4025 1.101
42.4190 1.145
42.4356 1.090
42.4521 1.019
42.4687 1.068
42.4852 1.189
42.5017 1.063
42.5183 1.189
42.5348 1.162
42.5514 1.167
42.5679 1.282
42.5845 1.151
42.6010 1.238
42.6176 1.123
42.6341 1.134
42.6507 1.342
42.6672 1.397
42.6837 1.447
42.7003 1.441
42.7168 1.567
42.7334 1.414
42.7499 1.458
42.7665 1.562
42.7830 1.918
42.7996 1.644
42.8161 2.208
42.8327 2.296
42.8492 2.438
42.8657 2.416
42.8823 2.455
42.8988 3.008
42.9154 3.304
42.9319 3.627
42.9485 4.049
42.9650 4.614
42.9816 5.205
42.9981 6.077
43.0147 6.866
43.0312 7.868
43.0477 9.008
43.0643 11.299
43.0808 12.838
43.0974 15.184
43.1139 18.416
43.1305 23.074
43.1470 27.797
43.1636 33.359
43.1801 40.005
43.1967 45.814
43.2132 47.962
43.2297 47.079
43.2463 43.047
43.2628 36.290
43.2794 30.740
43.2959 29.003
43.3125 27.123
43.3290 26.181
43.3456 23.173
43.3621 19.419
43.3787 14.592
43.3952 10.723
43.4117 7.244
43.4283 5.764
43.4448 4.811
43.4614 3.721
43.4779 3.090
43.4945 2.762
43.5110 2.521
43.5276 2.340
43.5441 2.263
43.5606 1.896
43.5772 1.868
43.5937 1.825
43.6103 1.551
43.6268 1.688
43.6434 1.605
43.6599 1.485
43.6765 1.266
43.6930 1.386
43.7096 1.332
43.7261 1.222
43.7426 1.359
43.7592 1.205
43.7757 1.233
43.7923 1.233
43.8088 1.167
43.8254 0.975
43.8419 1.074
43.8585 1.101
43.8750 1.195
43.8916 1.167
43.9081 1.134
43.9246 1.003
43.9412 0.932
43.9577 1.030
43.9743 1.195
43.9908 1.003
44.0074 1.019
44.0239 1.041
44.0405 0.970
44.0570 1.030
44.0736 0.888
44.0901 0.921
44.1066 0.866
44.1232 0.844
44.1397 0.860
44.1563 0.997
44.1728 0.975
44.1894 0.904
44.2059 0.937
44.2225 0.866
44.2390 0.871
44.2556 0.849
44.2721 0.975
44.2886 0.844
44.3052 0.904
44.3217 0.844
44.3383 0.942
44.3548 0.959
44.3714 0.904
44.3879 0.838
44.4045 0.860
44.4210 0.899
44.4376 0.882
44.4541 0.981
44.4706 0.789
44.4872 0.910
44.5037 0.975
44.5203 0.959
44.5368 0.997
44.5534 0.795
44.5699 0.811
44.5865 0.910
44.6030 0.893
44.6196 0.745
44.6361 0.899
44.6526 0.718
44.6692 0.789
44.6857 0.910
44.7023 0.756
44.7188 0.795
44.7354 0.805
44.7519 0.805
44.7685 0.833
44.7850 0.773
44.8016 0.805
44.8181 0.899
44.8346 0.805
44.8512 0.674
44.8677 0.701
44.8843 0.789
44.9008 0.723
44.9174 0.773
44.9339 0.795
44.9505 0.899
44.9670 1.025
44.9836 0.849
45.0001 0.707
45.0166 0.827
45.0332 0.778
45.0497 0.822
45.0663 0.833
45.0828 0.767
45.0994 0.816
45.1159 0.866
45.1325 0.805
45.1490 0.784
45.1656 0.849
45.1821 0.855
45.1986 0.745
45.2152 0.997
45.2317 0.805
45.2483 0.833
45.2648 0.789
45.2814 0.800
45.2979 0.784
45.3145 0.690
45.3310 0.805
45.3476 0.849
45.3641 0.800
45.3806 0.729
45.3972 0.773
45.4137 0.778
45.4303 0.679
45.4468 0.784
45.4634 0.751
45.4799 0.652
45.4965 0.712
45.5130 0.729
45.5296 0.855
45.5461 0.773
45.5626 0.888
45.5792 0.833
45.5957 0.910
45.6123 0.751
45.6288 0.756
45.6454 0.811
45.6619 0.762
45.6785 0.756
45.6950 0.696
45.7116 0.833
45.7281 0.745
45.7446 0.899
45.7612 0.986
45.7777 0.773
45.7943 0.762
45.8108 0.800
45.8274 0.827
45.8439 0.789
45.8605 0.926
45.8770 0.767
45.8936 0.849
45.9101 0.811
45.9266 0.899
45.9432 0.926
45.9597 1.058
45.9763 1.068
45.9928 1.090
46.0094 1.293
46.0259 1.359
46.0425 1.326
46.0590 1.375
46.0756 1.238
46.0921 1.058
46.1086 1.030
46.1252 1.025
46.1417 1.140
46.1583 1.008
46.1748 0.959
46.1914 0.964
46.2079 0.942
46.2245 0.860
46.2410 0.756
46.2575 0.789
46.2741 0.756
46.2906 0.740
46.3072 0.789
46.3237 0.603
46.3403 0.751
46.3568 0.811
46.3734 0.729
46.3899 0.652
46.4065 0.619
46.4230 0.625
46.4395 0.756
46.4561 0.712
46.4726 0.630
46.4892 0.844
46.5057 0.636
46.5223 0.712
46.5388 0.586
46.5554 0.663
46.5719 0.762
46.5885 0.756
46.6050 0.762
46.6215 0.663
46.6381 0.833
46.6546 0.734
46.6712 0.767
46.6877 0.701
46.7043 0.767
46.7208 0.652
46.7374 0.740
46.7539 0.592
46.7705 0.773
46.7870 0.767
46.8035 0.784
46.8201 0.723
46.8366 0.762
46.8532 0.745
46.8697 0.729
46.8863 0.723
46.9028 0.740
46.9194 0.658
46.9359 0.816
46.9525 0.630
46.9690 0.805
46.9855 0.696
47.0021 0.756
47.0186 0.756
47.0352 0.800
47.0517 0.773
47.0683 0.762
47.0848 0.668
47.1014 0.707
47.1179 0.712
47.1345 0.696
47.1510 0.723
47.1675 0.652
47.1841 0.521
47.2006 0.641
47.2172 0.745
47.2337 0.712
47.2503 0.729
47.2668 0.630
47.2834 0.663
47.2999 0.597
47.3165 0.636
47.3330 0.674
47.3495 0.751
47.3661 0.630
47.3826 0.647
47.3992 0.679
47.4157 0.756
47.4323 0.707
47.4488 0.608
47.4654 0.773
47.4819 0.668
47.4985 0.767
47.5150 0.564
47.5315 0.553
47.5481 0.685
47.5646 0.690
47.5812 0.603
47.5977 0.690
47.6143 0.553
47.6308 0.707
47.6474 0.647
47.6639 0.647
47.6805 0.712
47.6970 0.630
47.7135 0.641
47.7301 0.696
47.7466 0.784
47.7632 0.679
47.7797 0.641
47.7963 0.756
47.8128 0.658
47.8294 0.597
47.8459 0.641
47.8625 0.641
47.8790 0.729
47.8955 0.647
47.9121 0.614
47.9286 0.581
47.9452 0.658
47.9617 0.658
47.9783 0.630
47.9948 0.707
48.0114 0.619
48.0279 0.619
48.0445 0.674
48.0610 0.679
48.0775 0.559
48.0941 0.625
48.1106 0.641
48.1272 0.553
48.1437 0.679
48.1603 0.707
48.1768 0.641
48.1934 0.630
48.2099 0.597
48.2265 0.668
48.2430 0.696
48.2595 0.614
48.2761 0.564
48.2926 0.866
48.3092 0.663
48.3257 0.762
48.3423 0.658
48.3588 0.608
48.3754 0.526
48.3919 0.614
48.4085 0.586
48.4250 0.668
48.4415 0.784
48.4581 0.586
48.4746 0.625
48.4912 0.641
48.5077 0.778
48.5243 0.652
48.5408 0.762
48.5574 0.696
48.5739 0.658
48.5905 0.625
48.6070 0.537
48.6235 0.636
48.6401 0.581
48.6566 0.718
48.6732 0.773
48.6897 0.603
48.7063 0.723
48.7228 0.636
48.7394 0.658
48.7559 0.619
48.7725 0.647
48.7890 0.581
48.8055 0.729
48.8221 0.592
48.8386 0.668
48.8552 0.597
48.8717 0.729
48.8883 0.685
48.9048 0.641
48.9214 0.641
48.9379 0.696
48.9545 0.504
48.9710 0.674
48.9875 0.712
49.0041 0.630
49.0206 0.537
49.0372 0.668
49.0537 0.636
49.0703 0.597
49.0868 0.581
49.1034 0.668
49.1199 0.608
49.1364 0.696
49.1530 0.641
49.1695 0.663
49.1861 0.581
49.2026 0.603
49.2192 0.592
49.2357 0.625
49.2523 0.614
49.2688 0.630
49.2854 0.674
49.3019 0.581
49.3184 0.608
49.3350 0.745
49.3515 0.668
49.3681 0.586
49.3846 0.586
49.4012 0.668
49.4177 0.597
49.4343 0.696
49.4508 0.575
49.4674 0.570
49.4839 0.773
49.5004 0.636
49.5170 0.614
49.5335 0.521
49.5501 0.570
49.5666 0.690
49.5832 0.542
49.5997 0.581
49.6163 0.542
49.6328 0.723
49.6494 0.581
49.6659 0.674
49.6824 0.537
49.6990 0.690
49.7155 0.608
49.7321 0.707
49.7486 0.751
49.7652 0.575
49.7817 0.608
49.7983 0.592
49.8148 0.608
49.8314 0.636
49.8479 0.614
49.8644 0.608
49.8810 0.586
49.8975 0.553
49.9141 0.559
49.9306 0.641
49.9472 0.597
49.9637 0.674
49.9803 0.663
49.9968 0.542
50.0134 0.690
50.0299 0.707
50.0464 0.603
50.0630 0.795
50.0795 0.647
50.0961 0.668
50.1126 0.521
50.1292 0.608
50.1457 0.658
50.1623 0.575
50.1788 0.696
50.1954 0.690
50.2119 0.630
50.2284 0.619
50.2450 0.619
50.2615 0.647
50.2781 0.559
50.2946 0.685
50.3112 0.515
50.3277 0.548
50.3443 0.647
50.3608 0.570
50.3774 0.570
50.3939 0.652
50.4104 0.586
50.4270 0.668
50.4435 0.619
50.4601 0.532
50.4766 0.707
50.4932 0.521
50.5097 0.625
50.5263 0.597
50.5428 0.740
50.5594 0.729
50.5759 0.800
50.5924 0.636
50.6090 0.641
50.6255 0.690
50.6421 0.679
50.6586 0.679
50.6752 0.696
50.6917 0.701
50.7083 0.674
50.7248 0.718
50.7414 0.767
50.7579 0.641
50.7744 0.581
50.7910 0.668
50.8075 0.663
50.8241 0.795
50.8406 0.608
50.8572 0.614
50.8737 0.762
50.8903 0.745
50.9068 0.663
50.9234 0.575
50.9399 0.663
50.9564 0.729
50.9730 0.751
50.9895 0.647
51.0061 0.729
51.0226 0.729
51.0392 0.718
51.0557 0.734
51.0723 0.778
51.0888 0.641
51.1054 0.674
51.1219 0.636
51.1384 0.668
51.1550 0.592
51.1715 0.619
51.1881 0.685
51.2046 0.773
51.2212 0.636
51.2377 0.778
51.2543 0.795
51.2708 0.789
51.2874 0.625
51.3039 0.647
51.3204 0.800
51.3370 0.696
51.3535 0.816
51.3701 0.740
51.3866 0.762
51.4032 0.795
51.4197 0.663
51.4363 0.756
51.4528 0.603
51.4694 0.658
51.4859 0.784
51.5024 0.778
51.5190 0.701
51.5355 0.674
51.5521 0.838
51.5686 0.795
51.5852 0.740
51.6017 0.800
51.6183 0.789
51.6348 0.778
51.6514 0.762
51.6679 0.816
51.6844 0.778
51.7010 0.734
51.7175 0.805
51.7341 0.674
51.7506 0.729
51.7672 0.822
51.7837 0.756
51.8003 0.822
51.8168 0.860
51.8333 0.904
51.8499 0.827
51.8664 0.893
51.8830 0.964
51.8995 0.981
51.9161 1.052
51.9326 1.260
51.9492 1.036
51.9657 1.162
51.9823 1.288
51.9988 1.315
52.0153 1.321
52.0319 1.496
52.0484 1.726
52.0650 1.699
52.0815 2.093
52.0981 2.186
52.1146 2.449
52.1312 2.871
52.1477 3.123
52.1643 3.386
52.1808 3.627
52.1973 4.499
52.2139 4.784
52.2304 5.726
52.2470 7.189
52.2635 7.468
52.2801 9.589
52.2966 11.107
52.3132 12.866
52.3297 15.321
52.3463 17.858
52.3628 19.600
52.3793 20.953
52.3959 19.375
52.4124 17.205
52.4290 14.093
52.4455 12.060
52.4621 11.096
52.4786 10.789
52.4952 11.211
52.5117 10.992
52.5283 10.422
52.5448 8.827
52.5613 7.479
52.5779 5.534
52.5944 3.989
52.6110 3.386
52.6275 2.438
52.6441 2.186
52.6606 1.885
52.6772 1.655
52.6937 1.375
52.7103 1.359
52.7268 1.244
52.7433 1.167
52.7599 1.151
52.7764 1.123
52.7930 0.926
52.8095 0.811
52.8261 0.910
52.8426 1.019
52.8592 0.910
52.8757 0.926
52.8923 0.882
52.9088 0.816
52.9253 0.953
52.9419 0.734
52.9584 0.970
52.9750 0.942
52.9915 0.729
53.0081 0.822
53.0246 0.784
53.0412 0.701
53.0577 0.663
53.0743 0.970
53.0908 0.658
53.1073 0.822
53.1239 0.712
53.1404 0.647
53.1570 0.745
53.1735 0.756
53.1901 0.767
53.2066 0.767
53.2232 0.822
53.2397 0.795
53.2563 0.696
53.2728 0.647
53.2893 0.767
53.3059 0.641
53.3224 0.701
53.3390 0.751
53.3555 0.597
53.3721 0.559
53.3886 0.575
53.4052 0.570
53.4217 0.603
53.4383 0.658
53.4548 0.778
53.4713 0.521
53.4879 0.586
53.5044 0.712
53.5210 0.625
53.5375 0.625
53.5541 0.608
53.5706 0.603
53.5872 0.685
53.6037 0.553
53.6203 0.603
53.6368 0.614
53.6533 0.614
53.6699 0.658
53.6864 0.537
53.7030 0.723
53.7195 0.641
53.7361 0.712
53.7526 0.674
53.7692 0.668
53.7857 0.707
53.8023 0.652
53.8188 0.625
53.8353 0.564
53.8519 0.614
53.8684 0.570
53.8850 0.586
53.9015 0.745
53.9181 0.729
53.9346 0.647
53.9512 0.586
53.9677 0.652
53.9843 0.614
54.0008 0.553
54.0173 0.619
54.0339 0.614
54.0504 0.603
54.0670 0.586
54.0835 0.641
54.1001 0.701
54.1166 0.559
54.1332 0.553
54.1497 0.592
54.1663 0.679
54.1828 0.647
54.1993 0.690
54.2159 0.532
54.2324 0.575
54.2490 0.510
54.2655 0.603
54.2821 0.707
54.2986 0.493
54.3152 0.570
54.3317 0.707
54.3483 0.542
54.3648 0.542
54.3813 0.482
54.3979 0.614
54.4144 0.433
54.4310 0.625
54.4475 0.674
54.4641 0.564
54.4806 0.647
54.4972 0.532
54.5137 0.636
54.5302 0.647
54.5468 0.608
54.5633 0.559
54.5799 0.586
54.5964 0.570
54.6130 0.575
54.6295 0.663
54.6461 0.532
54.6626 0.564
54.6792 0.679
54.6957 0.553
54.7122 0.647
54.7288 0.564
54.7453 0.548
54.7619 0.619
54.7784 0.614
54.7950 0.504
54.8115 0.559
54.8281 0.570
54.8446 0.636
54.8612 0.668
54.8777 0.570
54.8942 0.592
54.9108 0.663
54.9273 0.493
54.9439 0.614
54.9604 0.548
54.9770 0.592
54.9935 0.685
55.0101 0.570
55.0266 0.586
55.0432 0.658
55.0597 0.658
55.0762 0.652
55.0928 0.542
55.1093 0.586
55.1259 0.658
55.1424 0.674
55.1590 0.658
55.1755 0.712
55.1921 0.614
55.2086 0.729
55.2252 0.756
55.2417 0.833
55.2582 0.641
55.2748 0.729
55.2913 0.586
55.3079 0.849
55.3244 0.756
55.3410 0.718
55.3575 0.800
55.3741 0.718
55.3906 0.658
55.4072 0.641
55.4237 0.679
55.4402 0.668
55.4568 0.647
55.4733 0.762
55.4899 0.866
55.5064 0.685
55.5230 0.778
55.5395 0.696
55.5561 0.690
55.5726 0.712
55.5892 0.745
55.6057 0.636
55.6222 0.696
55.6388 0.690
55.6553 0.745
55.6719 0.630
55.6884 0.723
55.7050 0.762
55.7215 0.723
55.7381 0.712
55.7546 0.696
55.7712 0.767
55.7877 0.663
55.8042 0.592
55.8208 0.745
55.8373 0.805
55.8539 0.773
55.8704 0.712
55.8870 0.767
55.9035 0.718
55.9201 0.816
55.9366 0.707
55.9532 0.707
55.9697 0.575
55.9862 0.778
56.0028 0.652
56.0193 0.729
56.0359 0.723
56.0524 0.625
56.0690 0.658
56.0855 0.674
56.1021 0.690
56.1186 0.685
56.1352 0.718
56.1517 0.751
56.1682 0.855
56.1848 0.860
56.2013 0.575
56.2179 0.784
56.2344 0.690
56.2510 0.778
56.2675 0.751
56.2841 0.756
56.3006 0.816
56.3172 0.805
56.3337 0.795
56.3502 0.707
56.3668 0.816
56.3833 0.756
56.3999 0.756
56.4164 0.833
56.4330 0.822
56.4495 0.701
56.4661 0.811
56.4826 0.844
56.4992 0.784
56.5157 0.833
56.5322 0.690
56.5488 0.888
56.5653 0.986
56.5819 0.833
56.5984 0.729
56.6150 1.014
56.6315 0.904
56.6481 1.085
56.6646 1.003
56.6812 0.899
56.6977 1.112
56.7142 1.118
56.7308 1.118
56.7473 1.189
56.7639 1.118
56.7804 1.173
56.7970 1.321
56.8135 1.332
56.8301 1.392
56.8466 1.479
56.8632 1.529
56.8797 1.896
56.8962 1.748
56.9128 1.907
56.9293 2.011
56.9459 2.740
56.9624 2.625
56.9790 2.910
56.9955 3.156
57.0121 3.447
57.0286 4.296
57.0452 4.658
57.0617 5.079
57.0782 5.814
57.0948 6.515
57.1113 7.463
57.1279 8.915
57.1444 10.236
57.1610 12.247
57.1775 13.907
57.1941 16.690
57.2106 19.814
57.2272 23.014
57.2437 27.381
57.2602 31.638
57.2768 35.211
57.2933 36.559
57.3099 37.699
57.3264 34.844
57.3430 30.312
57.3595 25.123
57.3761 20.838
57.3926 19.003
57.4091 18.526
57.4257 19.797
57.4422 20.170
57.4588 20.422
57.4753 18.416
57.4919 14.970
57.5084 11.732
57.5250 8.510
57.5415 6.685
57.5581 4.899
57.5746 3.786
57.5911 3.101
57.6077 2.625
57.6242 2.553
57.6408 2.318
57.6573 1.918
57.6739 1.732
57.6904 1.638
57.7070 1.649
57.7235 1.589
57.7401 1.315
57.7566 1.375
57.7731 1.260
57.7897 1.140
57.8062 1.101
57.8228 1.107
57.8393 1.112
57.8559 1.085
57.8724 1.085
57.8890 1.014
57.9055 0.932
57.9221 0.953
57.9386 1.003
57.9551 1.047
57.9717 0.937
57.9882 0.855
58.0048 0.964
58.0213 0.827
58.0379 0.970
58.0544 0.734
58.0710 0.888
58.0875 0.877
58.1041 0.871
58.1206 0.800
58.1371 0.712
58.1537 0.718
58.1702 0.784
58.1868 0.647
58.2033 0.723
58.2199 0.838
58.2364 0.805
58.2530 0.679
58.2695 0.773
58.2861 0.778
58.3026 0.849
58.3191 0.696
58.3357 0.625
58.3522 0.679
58.3688 0.696
58.3853 0.696
58.4019 0.696
58.4184 0.723
58.4350 0.597
58.4515 0.542
58.4681 0.751
58.4846 0.679
58.5011 0.679
58.5177 0.696
58.5342 0.652
58.5508 0.707
58.5673 0.581
58.5839 0.745
58.6004 0.762
58.6170 0.729
58.6335 0.685
58.6501 0.734
58.6666 0.663
58.6831 0.668
58.6997 0.712
58.7162 0.696
58.7328 0.718
58.7493 0.740
58.7659 0.696
58.7824 0.592
58.7990 0.707
58.8155 0.789
58.8321 0.559
58.8486 0.641
58.8651 0.586
58.8817 0.800
58.8982 0.614
58.9148 0.647
58.9313 0.597
58.9479 0.603
58.9644 0.712
58.9810 0.740
58.9975 0.685
59.0141 0.701
59.0306 0.592
59.0471 0.723
59.0637 0.745
59.0802 0.630
59.0968 0.729
59.1133 0.663
59.1299 0.625
59.1464 0.712
59.1630 0.636
59.1795 0.647
59.1961 0.734
59.2126 0.822
59.2291 0.668
59.2457 0.641
59.2622 0.767
59.2788 0.745
59.2953 0.668
59.3119 0.679
59.3284 0.773
59.3450 0.784
59.3615 0.789
59.3781 0.816
59.3946 0.882
59.4111 1.036
59.4277 0.959
59.4442 0.942
59.4608 1.233
59.4773 1.375
59.4939 1.364
59.5104 1.556
59.5270 1.386
59.5435 1.479
59.5601 1.496
59.5766 1.348
59.5931 1.249
59.6097 1.107
59.6262 1.096
59.6428 1.107
59.6593 1.118
59.6759 0.986
59.6924 1.118
59.7090 1.134
59.7255 1.025
59.7421 0.882
59.7586 0.811
59.7751 0.833
59.7917 0.674
59.8082 0.630
59.8248 0.690
59.8413 0.570
59.8579 0.586
59.8744 0.658
59.8910 0.668
59.9075 0.619
59.9241 0.608
59.9406 0.641
59.9571 0.564
59.9737 0.542
59.9902 0.679
60.0068 0.658
60.0233 0.630
60.0399 0.510
60.0564 0.575
60.0730 0.630
60.0895 0.597
60.1060 0.707
60.1226 0.482
60.1391 0.575
60.1557 0.756
60.1722 0.614
60.1888 0.658
60.2053 0.619
60.2219 0.553
60.2384 0.608
60.2550 0.668
60.2715 0.619
60.2880 0.597
60.3046 0.581
60.3211 0.636
60.3377 0.597
60.3542 0.592
60.3708 0.597
60.3873 0.597
60.4039 0.668
60.4204 0.674
60.4370 0.674
60.4535 0.636
60.4700 0.679
60.4866 0.636
60.5031 0.647
60.5197 0.668
60.5362 0.625
60.5528 0.696
60.5693 0.679
60.5859 0.740
60.6024 0.674
60.6190 0.729
60.6355 0.795
60.6520 0.816
60.6686 0.860
60.6851 0.877
60.7017 0.679
60.7182 0.942
60.7348 0.997
60.7513 1.036
60.7679 0.986
60.7844 1.134
60.8010 1.173
60.8175 1.392
60.8340 1.392
60.8506 1.688
60.8671 1.836
60.8837 1.836
60.9002 2.000
60.9168 2.504
60.9333 2.630
60.9499 2.778
60.9664 2.729
60.9830 2.767
60.9995 2.970
61.0160 3.282
61.0326 3.386
61.0491 3.616
61.0657 4.307
61.0822 4.197
61.0988 3.841
61.1153 3.671
61.1319 3.178
61.1484 2.707
61.1650 2.329
61.1815 2.000
61.1980 2.137
61.2146 2.181
61.2311 2.088
61.2477 1.945
61.2642 1.814
61.2808 1.841
61.2973 1.562
61.3139 1.375
61.3304 1.003
61.3470 0.970
61.3635 0.915
61.3800 0.778
61.3966 0.773
61.4131 0.734
61.4297 0.586
61.4462 0.795
61.4628 0.718
61.4793 0.740
61.4959 0.625
61.5124 0.581
61.5290 0.504
61.5455 0.553
61.5620 0.636
61.5786 0.586
61.5951 0.592
61.6117 0.789
61.6282 0.570
61.6448 0.564
61.6613 0.614
61.6779 0.559
61.6944 0.504
61.7110 0.532
61.7275 0.570
61.7440 0.559
61.7606 0.521
61.7771 0.553
61.7937 0.548
61.8102 0.636
61.8268 0.597
61.8433 0.542
61.8599 0.526
61.8764 0.504
61.8930 0.603
61.9095 0.510
61.9260 0.581
61.9426 0.581
61.9591 0.575
61.9757 0.532
61.9922 0.499
62.0088 0.537
62.0253 0.641
62.0419 0.526
62.0584 0.603
62.0750 0.504
62.0915 0.510
62.1080 0.542
62.1246 0.504
62.1411 0.603
62.1577 0.597
62.1742 0.488
62.1908 0.586
62.2073 0.663
62.2239 0.592
62.2404 0.504
62.2570 0.548
62.2735 0.526
62.2900 0.449
62.3066 0.466
62.3231 0.619
62.3397 0.488
62.3562 0.619
62.3728 0.521
62.3893 0.537
62.4059 0.466
62.4224 0.553
62.4390 0.455
62.4555 0.548
62.4720 0.532
62.4886 0.625
62.5051 0.532
62.5217 0.542
62.5382 0.592
62.5548 0.532
62.5713 0.542
62.5879 0.515
62.6044 0.559
62.6210 0.548
62.6375 0.444
62.6540 0.532
62.6706 0.570
62.6871 0.586
62.7037 0.521
62.7202 0.542
62.7368 0.542
62.7533 0.548
62.7699 0.575
62.7864 0.526
62.8029 0.488
62.8195 0.701
62.8360 0.526
62.8526 0.477
62.8691 0.510
62.8857 0.564
62.9022 0.553
62.9188 0.477
62.9353 0.444
62.9519 0.537
62.9684 0.559
62.9849 0.542
63.0015 0.499
63.0180 0.570
63.0346 0.542
63.0511 0.455
63.0677 0.482
63.0842 0.542
63.1008 0.625
63.1173 0.488
63.1339 0.592
63.1504 0.488
63.1669 0.444
63.1835 0.384
63.2000 0.455
63.2166 0.499
63.2331 0.488
63.2497 0.455
63.2662 0.537
63.2828 0.433
63.2993 0.400
63.3159 0.581
63.3324 0.532
63.3489 0.449
63.3655 0.526
63.3820 0.575
63.3986 0.455
63.4151 0.493
63.4317 0.570
63.4482 0.548
63.4648 0.537
63.4813 0.477
63.4979 0.504
63.5144 0.493
63.5309 0.488
63.5475 0.499
63.5640 0.521
63.5806 0.553
63.5971 0.460
63.6137 0.482
63.6302 0.488
63.6468 0.471
63.6633 0.553
63.6799 0.477
63.6964 0.466
63.7129 0.592
63.7295 0.499
63.7460 0.614
63.7626 0.499
63.7791 0.553
63.7957 0.471
63.8122 0.499
63.8288 0.597
63.8453 0.597
63.8619 0.504
63.8784 0.625
63.8949 0.647
63.9115 0.559
63.9280 0.499
63.9446 0.532
63.9611 0.542
63.9777 0.592
63.9942 0.564
64.0108 0.548
64.0273 0.608
64.0439 0.575
64.0604 0.608
64.0769 0.542
64.0935 0.515
64.1100 0.614
64.1266 0.471
64.1431 0.553
64.1597 0.575
64.1762 0.542
64.1928 0.488
64.2093 0.575
64.2259 0.526
64.2424 0.608
64.2589 0.532
64.2755 0.597
64.2920 0.532
64.3086 0.630
64.3251 0.504
64.3417 0.526
64.3582 0.559
64.3748 0.537
64.3913 0.581
64.4079 0.559
64.4244 0.581
64.4409 0.416
64.4575 0.614
64.4740 0.521
64.4906 0.592
64.5071 0.471
64.5237 0.548
64.5402 0.510
64.5568 0.521
64.5733 0.526
64.5899 0.444
64.6064 0.504
64.6229 0.575
64.6395 0.608
64.6560 0.548
64.6726 0.526
64.6891 0.471
64.7057 0.592
64.7222 0.652
64.7388 0.378
64.7553 0.542
64.7719 0.619
64.7884 0.592
64.8049 0.471
64.8215 0.542
64.8380 0.619
64.8546 0.537
64.8711 0.553
64.8877 0.592
64.9042 0.553
64.9208 0.548
64.9373 0.581
64.9539 0.521
64.9704 0.564
64.9869 0.603
65.0035 0.614
65.0200 0.581
65.0366 0.521
65.0531 0.542
65.0697 0.608
65.0862 0.597
65.1028 0.581
65.1193 0.581
65.1359 0.625
65.1524 0.542
65.1689 0.586
65.1855 0.701
65.2020 0.614
65.2186 0.559
65.2351 0.564
65.2517 0.619
65.2682 0.553
65.2848 0.619
65.3013 0.548
65.3179 0.641
65.3344 0.603
65.3509 0.564
65.3675 0.614
65.3840 0.647
65.4006 0.647
65.4171 0.630
65.4337 0.696
65.4502 0.685
65.4668 0.685
65.4833 0.592
65.4999 0.685
65.5164 0.652
65.5329 0.663
65.5495 0.740
65.5660 0.827
65.5826 0.679
65.5991 0.647
65.6157 0.679
65.6322 0.789
65.6488 0.789
65.6653 0.833
65.6818 0.701
65.6984 0.723
65.7149 0.762
65.7315 0.833
65.7480 0.849
65.7646 0.789
65.7811 0.773
65.7977 0.844
65.8142 1.063
65.8308 0.975
65.8473 0.932
65.8638 1.184
65.8804 1.123
65.8969 1.216
65.9135 1.348
65.9300 1.321
65.9466 1.408
65.9631 1.512
65.9797 1.562
65.9962 1.819
66.0128 2.126
66.0293 2.099
66.0458 2.170
66.0624 2.652
66.0789 2.942
66.0955 3.293
66.1120 3.748
66.1286 3.995
66.1451 4.800
66.1617 5.682
66.1782 6.362
66.1948 7.337
66.2113 8.312
66.2278 9.211
66.2444 11.299
66.2609 12.471
66.2775 13.545
66.2940 13.885
66.3106 13.195
66.3271 11.310
66.3437 9.458
66.3602 7.770
66.3768 6.816
66.3933 6.236
66.4098 6.504
66.4264 6.674
66.4429 7.156
66.4595 7.364
66.4760 7.337
66.4926 6.795
66.5091 5.551
66.5257 4.849
66.5422 3.797
66.5588 3.030
66.5753 2.438
66.5918 1.945
66.6084 1.638
66.6249 1.633
66.6415 1.008
66.6580 1.277
66.6746 1.233
66.6911 1.047
66.7077 0.860
66.7242 1.074
66.7408 0.997
66.7573 0.910
66.7738 0.904
66.7904 1.068
66.8069 0.800
66.8235 0.882
66.8400 0.751
66.8566 0.877
66.8731 0.756
66.8897 0.789
66.9062 0.756
66.9228 0.838
66.9393 0.877
66.9558 0.751
66.9724 0.877
66.9889 0.767
67.0055 0.696
67.0220 0.855
67.0386 0.877
67.0551 0.849
67.0717 0.723
67.0882 0.745
67.1048 0.773
67.1213 0.679
67.1378 0.822
67.1544 0.712
67.1709 0.729
67.1875 0.663
67.2040 0.795
67.2206 0.784
67.2371 0.816
67.2537 0.805
67.2702 0.784
67.2868 0.838
67.3033 0.893
67.3198 0.849
67.3364 0.866
67.3529 1.025
67.3695 0.904
67.3860 0.762
67.4026 0.926
67.4191 0.970
67.4357 0.975
67.4522 1.003
67.4688 0.953
67.4853 1.074
67.5018 1.112
67.5184 1.288
67.5349 1.200
67.5515 1.342
67.5680 1.441
67.5846 1.655
67.6011 1.458
67.6177 1.786
67.6342 1.682
67.6508 2.060
67.6673 2.055
67.6838 2.449
67.7004 2.860
67.7169 2.833
67.7335 3.304
67.7500 3.512
67.7666 3.732
67.7831 4.559
67.7997 5.107
67.8162 5.463
67.8328 6.663
67.8493 7.978
67.8658 9.107
67.8824 11.112
67.8989 12.800
67.9155 14.444
67.9320 17.129
67.9486 18.778
67.9651 20.471
67.9817 20.307
67.9982 18.871
68.0148 16.340
68.0313 13.973
68.0478 11.107
68.0644 9.386
68.0809 8.888
68.0975 8.997
68.1140 9.370
68.1306 9.923
68.1471 10.416
68.1637 10.526
68.1802 10.000
68.1968 8.992
68.2133 7.359
68.2298 5.534
68.2464 4.307
68.2629 3.216
68.2795 2.455
68.2960 2.110
68.3126 2.121
68.3291 1.649
68.3457 1.425
68.3622 1.332
68.3787 1.392
68.3953 1.271
68.4118 1.019
68.4284 0.992
68.4449 0.942
68.4615 0.937
68.4780 1.025
68.4946 0.926
68.5111 0.795
68.5277 0.740
68.5442 0.926
68.5607 0.849
68.5773 0.668
68.5938 0.827
68.6104 0.778
68.6269 0.811
68.6435 0.811
68.6600 0.668
68.6766 0.663
68.6931 0.652
68.7097 0.636
68.7262 0.614
68.7427 0.690
68.7593 0.712
68.7758 0.636
68.7924 0.729
68.8089 0.619
68.8255 0.723
68.8420 0.630
68.8586 0.575
68.8751 0.510
68.8917 0.630
68.9082 0.586
68.9247 0.614
68.9413 0.712
68.9578 0.521
68.9744 0.630
68.9909 0.575
69.0075 0.603
69.0240 0.521
69.0406 0.504
69.0571 0.608
69.0737 0.663
69.0902 0.636
69.1067 0.647
69.1233 0.482
69.1398 0.521
69.1564 0.455
69.1729 0.521
69.1895 0.652
69.2060 0.570
69.2226 0.619
69.2391 0.608
69.2557 0.581
69.2722 0.532
69.2887 0.586
69.3053 0.658
69.3218 0.608
69.3384 0.614
69.3549 0.532
69.3715 0.575
69.3880 0.510
69.4046 0.575
69.4211 0.504
69.4377 0.493
69.4542 0.586
69.4707 0.438
69.4873 0.504
69.5038 0.499
69.5204 0.619
69.5369 0.526
69.5535 0.482
69.5700 0.542
69.5866 0.449
69.6031 0.548
69.6197 0.521
69.6362 0.482
69.6527 0.521
69.6693 0.438
69.6858 0.559
69.7024 0.581
69.7189 0.493
69.7355 0.542
69.7520 0.438
69.7686 0.482
69.7851 0.553
69.8017 0.504
69.8182 0.581
69.8347 0.515
69.8513 0.542
69.8678 0.526
69.8844 0.466
69.9009 0.630
69.9175 0.537
69.9340 0.575
69.9506 0.537
69.9671 0.603
69.9837 0.597
70.0002 0.603
