'Id: "" Comment: "" Operator: "Administrator" Anode: "Cu" Scantype: "Locked Coupled" TimePerStep: "182.5" X: "0" Y: "0" Z: "0" 
20.0000 2.548
20.0165 2.405
20.0331 2.384
20.0496 2.477
20.0662 2.641
20.0827 2.477
20.0993 2.460
20.1158 2.647
20.1324 2.581
20.1489 2.405
20.1655 2.570
20.1820 2.307
20.1985 2.493
20.2151 2.482
20.2316 2.614
20.2482 2.521
20.2647 2.378
20.2813 2.499
20.2978 2.400
20.3144 2.455
20.3309 2.389
20.3475 2.575
20.3640 2.285
20.3805 2.345
20.3971 2.296
20.4136 2.679
20.4302 2.362
20.4467 2.619
20.4633 2.521
20.4798 2.460
20.4964 2.252
20.5129 2.581
20.5295 2.274
20.5460 2.329
20.5625 2.334
20.5791 2.548
20.5956 2.274
20.6122 2.378
20.6287 2.422
20.6453 2.389
20.6618 2.405
20.6784 2.252
20.6949 2.619
20.7115 2.460
20.7280 2.400
20.7445 2.400
20.7611 2.411
20.7776 2.104
20.7942 2.203
20.8107 2.378
20.8273 2.356
20.8438 2.214
20.8604 2.153
20.8769 2.279
20.8935 2.230
20.9100 2.515
20.9265 2.488
20.9431 2.312
20.9596 2.334
20.9762 2.153
20.9927 2.345
21.0093 2.164
21.0258 2.197
21.0424 2.285
21.0589 2.449
21.0755 2.268
21.0920 2.351
21.1085 2.460
21.1251 2.252
21.1416 2.203
21.1582 2.438
21.1747 2.252
21.1913 2.433
21.2078 2.241
21.2244 2.449
21.2409 2.301
21.2575 2.290
21.2740 2.142
21.2905 2.296
21.3071 2.192
21.3236 2.345
21.3402 2.132
21.3567 2.142
21.3733 2.066
21.3898 2.356
21.4064 2.597
21.4229 2.411
21.4394 2.060
21.4560 2.329
21.4725 2.356
21.4891 2.208
21.5056 2.488
21.5222 2.274
21.5387 2.482
21.5553 2.378
21.5718 2.252
21.5884 2.279
21.6049 2.214
21.6214 2.148
21.6380 2.351
21.6545 2.356
21.6711 2.395
21.6876 2.258
21.7042 2.378
21.7207 2.241
21.7373 2.279
21.7538 2.318
21.7704 2.153
21.7869 2.356
21.8034 2.153
21.8200 2.290
21.8365 2.279
21.8531 2.219
21.8696 2.247
21.8862 2.356
21.9027 2.312
21.9193 2.121
21.9358 2.148
21.9524 2.345
21.9689 2.137
21.9854 2.279
22.0020 2.153
22.0185 2.318
22.0351 1.912
22.0516 2.148
22.0682 2.225
22.0847 2.351
22.1013 2.230
22.1178 2.230
22.1344 2.110
22.1509 2.312
22.1674 2.274
22.1840 2.208
22.2005 2.252
22.2171 2.258
22.2336 1.945
22.2502 2.192
22.2667 2.197
22.2833 2.164
22.2998 2.126
22.3164 2.060
22.3329 1.989
22.3494 2.049
22.3660 2.312
22.3825 1.907
22.3991 2.088
22.4156 1.945
22.4322 2.153
22.4487 1.934
22.4653 2.082
22.4818 2.082
22.4984 2.132
22.5149 2.110
22.5314 2.121
22.5480 2.263
22.5645 2.241
22.5811 2.066
22.5976 2.137
22.6142 2.038
22.6307 1.934
22.6473 2.110
22.6638 2.082
22.6804 2.088
22.6969 1.808
22.7134 1.978
22.7300 2.038
22.7465 2.142
22.7631 2.049
22.7796 2.011
22.7962 1.951
22.8127 2.126
22.8293 2.082
22.8458 1.896
22.8624 1.868
22.8789 1.973
22.8954 2.082
22.9120 1.912
22.9285 2.247
22.9451 2.082
22.9616 2.236
22.9782 2.301
22.9947 2.115
23.0113 2.071
23.0278 2.011
23.0444 1.885
23.0609 1.967
23.0774 2.000
23.0940 2.159
23.1105 1.956
23.1271 2.071
23.1436 2.066
23.1602 1.841
23.1767 1.978
23.1933 1.978
23.2098 1.945
23.2264 1.940
23.2429 2.005
23.2594 2.126
23.2760 2.022
23.2925 2.088
23.3091 2.170
23.3256 1.956
23.3422 1.940
23.3587 1.940
23.3753 2.000
23.3918 2.049
23.4084 2.022
23.4249 1.945
23.4414 1.885
23.4580 1.907
23.4745 2.110
23.4911 2.038
23.5076 2.082
23.5242 2.071
23.5407 1.984
23.5573 2.071
23.5738 1.819
23.5904 1.879
23.6069 1.984
23.6234 2.000
23.6400 2.071
23.6565 1.951
23.6731 1.967
23.6896 1.918
23.7062 1.984
23.7227 1.967
23.7393 2.027
23.7558 2.077
23.7724 1.879
23.7889 2.055
23.8054 2.099
23.8220 1.934
23.8385 1.995
23.8551 1.836
23.8716 2.279
23.8882 1.962
23.9047 2.038
23.9213 2.307
23.9378 2.038
23.9544 2.345
23.9709 2.247
23.9874 2.296
24.0040 2.236
24.0205 2.318
24.0371 2.186
24.0536 2.362
24.0702 2.230
24.0867 2.038
24.1033 2.389
24.1198 2.285
24.1364 2.340
24.1529 2.351
24.1694 2.438
24.1860 2.290
24.2025 2.422
24.2191 2.515
24.2356 2.493
24.2522 2.427
24.2687 2.405
24.2853 2.400
24.3018 2.592
24.3183 2.477
24.3349 2.395
24.3514 2.444
24.3680 2.449
24.3845 2.351
24.4011 2.597
24.4176 2.805
24.4342 2.323
24.4507 2.603
24.4673 2.679
24.4838 2.367
24.5003 2.619
24.5169 2.301
24.5334 2.603
24.5500 2.778
24.5665 2.290
24.5831 2.767
24.5996 2.756
24.6162 2.663
24.6327 2.526
24.6493 2.548
24.6658 2.762
24.6823 2.674
24.6989 2.564
24.7154 2.614
24.7320 2.789
24.7485 2.871
24.7651 2.718
24.7816 2.795
24.7982 2.778
24.8147 2.395
24.8313 3.014
24.8478 2.674
24.8643 2.937
24.8809 2.608
24.8974 2.614
24.9140 2.515
24.9305 2.641
24.9471 2.942
24.9636 2.674
24.9802 3.008
24.9967 2.910
25.0133 2.652
25.0298 2.773
25.0463 2.882
25.0629 2.860
25.0794 2.838
25.0960 2.816
25.1125 2.789
25.1291 3.079
25.1456 2.773
25.1622 2.953
25.1787 3.173
25.1953 3.118
25.2118 3.474
25.2283 3.496
25.2449 3.710
25.2614 3.940
25.2780 3.962
25.2945 4.652
25.3111 4.937
25.3276 5.507
25.3442 6.504
25.3607 7.326
25.3773 8.805
25.3938 10.312
25.4103 12.268
25.4269 15.392
25.4434 19.058
25.4600 24.038
25.4765 29.085
25.4931 33.797
25.5096 36.230
25.5262 36.515
25.5427 33.419
25.5593 29.792
25.5758 25.912
25.5923 20.899
25.6089 16.844
25.6254 11.956
25.6420 9.222
25.6585 6.849
25.6751 5.436
25.6916 4.619
25.7082 3.912
25.7247 3.721
25.7413 3.414
25.7578 3.156
25.7743 3.145
25.7909 2.904
25.8074 2.767
25.8240 2.767
25.8405 2.784
25.8571 2.553
25.8736 2.718
25.8902 2.608
25.9067 2.575
25.9233 2.351
25.9398 2.389
25.9563 2.542
25.9729 2.427
25.9894 2.416
26.0060 2.438
26.0225 2.334
26.0391 2.460
26.0556 2.247
26.0722 2.208
26.0887 2.395
26.1053 2.219
26.1218 2.329
26.1383 2.192
26.1549 2.433
26.1714 2.389
26.1880 2.274
26.2045 2.422
26.2211 2.389
26.2376 2.077
26.2542 2.137
26.2707 2.093
26.2873 2.121
26.3038 2.192
26.3203 2.279
26.3369 2.104
26.3534 2.197
26.3700 2.362
26.3865 2.132
26.4031 2.307
26.4196 2.181
26.4362 2.060
26.4527 2.104
26.4693 1.973
26.4858 2.104
26.5023 2.296
26.5189 2.290
26.5354 2.071
26.5520 2.236
26.5685 2.093
26.5851 2.038
26.6016 2.186
26.6182 2.132
26.6347 2.049
26.6513 2.252
26.6678 2.044
26.6843 2.027
26.7009 2.247
26.7174 1.951
26.7340 2.055
26.7505 1.923
26.7671 2.082
26.7836 2.099
26.8002 2.066
26.8167 2.011
26.8333 1.951
26.8498 2.159
26.8663 1.951
26.8829 2.071
26.8994 1.967
26.9160 2.099
26.9325 1.803
26.9491 2.159
26.9656 1.885
26.9822 2.000
26.9987 1.792
27.0152 2.033
27.0318 1.858
27.0483 1.973
27.0649 2.005
27.0814 2.126
27.0980 1.973
27.1145 1.923
27.1311 2.005
27.1476 1.967
27.1642 1.967
27.1807 1.808
27.1972 1.858
27.2138 2.159
27.2303 1.868
27.2469 2.000
27.2634 1.962
27.2800 1.808
27.2965 1.803
27.3131 1.879
27.3296 1.742
27.3462 1.978
27.3627 1.737
27.3792 1.715
27.3958 1.918
27.4123 2.011
27.4289 1.912
27.4454 2.016
27.4620 1.852
27.4785 1.699
27.4951 1.945
27.5116 1.874
27.5282 1.841
27.5447 1.688
27.5612 1.644
27.5778 1.858
27.5943 2.093
27.6109 1.852
27.6274 1.847
27.6440 1.901
27.6605 1.814
27.6771 1.737
27.6936 1.907
27.7102 1.901
27.7267 1.781
27.7432 1.830
27.7598 1.814
27.7763 1.759
27.7929 1.841
27.8094 1.858
27.8260 1.978
27.8425 1.753
27.8591 1.879
27.8756 1.764
27.8922 1.803
27.9087 1.666
27.9252 1.781
27.9418 1.693
27.9583 1.710
27.9749 1.600
27.9914 1.748
28.0080 1.660
28.0245 1.803
28.0411 1.677
28.0576 1.605
28.0742 1.699
28.0907 1.912
28.1072 1.715
28.1238 1.660
28.1403 1.704
28.1569 1.808
28.1734 1.710
28.1900 1.540
28.2065 1.589
28.2231 1.693
28.2396 1.627
28.2562 1.584
28.2727 1.551
28.2892 1.649
28.3058 1.622
28.3223 1.781
28.3389 1.688
28.3554 1.622
28.3720 1.726
28.3885 1.677
28.4051 1.622
28.4216 1.578
28.4382 1.688
28.4547 1.540
28.4712 1.622
28.4878 1.573
28.5043 1.551
28.5209 1.567
28.5374 1.622
28.5540 1.616
28.5705 1.770
28.5871 1.759
28.6036 1.677
28.6202 1.540
28.6367 1.573
28.6532 1.545
28.6698 1.496
28.6863 1.567
28.7029 1.595
28.7194 1.468
28.7360 1.616
28.7525 1.386
28.7691 1.529
28.7856 1.353
28.8022 1.605
28.8187 1.551
28.8352 1.710
28.8518 1.353
28.8683 1.589
28.8849 1.485
28.9014 1.545
28.9180 1.485
28.9345 1.529
28.9511 1.562
28.9676 1.447
28.9842 1.556
29.0007 1.589
29.0172 1.430
29.0338 1.704
29.0503 1.638
29.0669 1.638
29.0834 1.496
29.1000 1.496
29.1165 1.468
29.1331 1.710
29.1496 1.567
29.1662 1.611
29.1827 1.375
29.1992 1.452
29.2158 1.529
29.2323 1.425
29.2489 1.447
29.2654 1.474
29.2820 1.441
29.2985 1.293
29.3151 1.518
29.3316 1.430
29.3482 1.562
29.3647 1.436
29.3812 1.408
29.3978 1.430
29.4143 1.436
29.4309 1.463
29.4474 1.551
29.4640 1.638
29.4805 1.310
29.4971 1.293
29.5136 1.425
29.5302 1.458
29.5467 1.397
29.5632 1.353
29.5798 1.348
29.5963 1.266
29.6129 1.430
29.6294 1.332
29.6460 1.332
29.6625 1.584
29.6791 1.375
29.6956 1.403
29.7121 1.403
29.7287 1.326
29.7452 1.403
29.7618 1.353
29.7783 1.359
29.7949 1.392
29.8114 1.512
29.8280 1.534
29.8445 1.414
29.8611 1.364
29.8776 1.370
29.8941 1.386
29.9107 1.321
29.9272 1.414
29.9438 1.397
29.9603 1.337
29.9769 1.386
29.9934 1.452
30.0100 1.211
30.0265 1.244
30.0431 1.370
30.0596 1.315
30.0761 1.370
30.0927 1.425
30.1092 1.260
30.1258 1.359
30.1423 1.310
30.1589 1.238
30.1754 1.370
30.1920 1.321
30.2085 1.397
30.2251 1.501
30.2416 1.293
30.2581 1.408
30.2747 1.353
30.2912 1.370
30.3078 1.293
30.3243 1.414
30.3409 1.244
30.3574 1.260
30.3740 1.348
30.3905 1.282
30.4071 1.238
30.4236 1.321
30.4401 1.271
30.4567 1.145
30.4732 1.277
30.4898 1.233
30.5063 1.408
30.5229 1.129
30.5394 1.282
30.5560 1.244
30.5725 1.189
30.5891 1.419
30.6056 1.392
30.6221 1.353
30.6387 1.293
30.6552 1.282
30.6718 1.249
30.6883 1.315
30.7049 1.173
30.7214 1.216
30.7380 1.178
30.7545 1.178
30.7711 1.277
30.7876 1.255
30.8041 1.205
30.8207 1.107
30.8372 1.321
30.8538 1.332
30.8703 1.134
30.8869 1.430
30.9034 1.326
30.9200 1.151
30.9365 1.315
30.9531 1.282
30.9696 1.277
30.9861 1.277
31.0027 1.359
31.0192 1.129
31.0358 1.211
31.0523 1.222
31.0689 1.332
31.0854 1.178
31.1020 1.277
31.1185 1.288
31.1351 1.282
31.1516 1.310
31.1681 1.140
31.1847 1.288
31.2012 1.293
31.2178 1.162
31.2343 1.195
31.2509 1.271
31.2674 1.304
31.2840 1.260
31.3005 1.255
31.3171 1.238
31.3336 1.200
31.3501 1.211
31.3667 1.353
31.3832 1.436
31.3998 1.332
31.4163 1.162
31.4329 1.222
31.4494 1.375
31.4660 1.523
31.4825 1.227
31.4991 1.249
31.5156 1.293
31.5321 1.375
31.5487 1.271
31.5652 1.293
31.5818 1.321
31.5983 1.233
31.6149 1.299
31.6314 1.096
31.6480 1.167
31.6645 1.266
31.6811 1.238
31.6976 1.123
31.7141 1.123
31.7307 1.326
31.7472 1.047
31.7638 1.167
31.7803 1.200
31.7969 1.205
31.8134 1.195
31.8300 1.118
31.8465 1.173
31.8631 1.178
31.8796 1.008
31.8961 1.101
31.9127 1.156
31.9292 1.288
31.9458 1.222
31.9623 1.014
31.9789 1.047
31.9954 1.118
32.0120 1.118
32.0285 1.162
32.0451 1.123
32.0616 1.222
32.0781 1.260
32.0947 1.030
32.1112 1.101
32.1278 1.151
32.1443 1.129
32.1609 1.123
32.1774 1.025
32.1940 1.025
32.2105 1.310
32.2271 1.074
32.2436 1.211
32.2601 1.074
32.2767 1.058
32.2932 0.997
32.3098 0.986
32.3263 1.184
32.3429 1.233
32.3594 1.052
32.3760 1.036
32.3925 1.195
32.4091 1.047
32.4256 1.145
32.4421 1.090
32.4587 1.118
32.4752 1.090
32.4918 1.151
32.5083 1.151
32.5249 1.216
32.5414 1.090
32.5580 1.085
32.5745 1.003
32.5910 1.101
32.6076 1.200
32.6241 1.178
32.6407 0.986
32.6572 1.134
32.6738 0.997
32.6903 0.997
32.7069 0.975
32.7234 1.063
32.7400 1.063
32.7565 1.184
32.7730 1.140
32.7896 1.058
32.8061 1.025
32.8227 1.129
32.8392 1.205
32.8558 1.162
32.8723 1.151
32.8889 1.156
32.9054 1.173
32.9220 1.074
32.9385 1.222
32.9550 1.151
32.9716 1.041
32.9881 1.074
33.0047 1.041
33.0212 0.992
33.0378 0.992
33.0543 1.123
33.0709 1.079
33.0874 1.085
33.1040 1.195
33.1205 1.063
33.1370 1.008
33.1536 1.140
33.1701 0.970
33.1867 0.926
33.2032 1.019
33.2198 1.151
33.2363 1.014
33.2529 1.101
33.2694 1.107
33.2860 1.173
33.3025 1.167
33.3190 1.014
33.3356 1.047
33.3521 1.074
33.3687 1.195
33.3852 1.074
33.4018 1.063
33.4183 0.975
33.4349 0.937
33.4514 1.101
33.4680 1.008
33.4845 1.085
33.5010 1.058
33.5176 0.948
33.5341 0.975
33.5507 0.855
33.5672 1.008
33.5838 1.008
33.6003 0.932
33.6169 1.145
33.6334 1.112
33.6500 0.964
33.6665 1.008
33.6830 0.997
33.6996 1.118
33.7161 1.030
33.7327 1.151
33.7492 1.068
33.7658 1.123
33.7823 1.277
33.7989 1.107
33.8154 1.140
33.8320 1.359
33.8485 1.238
33.8650 1.277
33.8816 1.359
33.8981 1.238
33.9147 1.244
33.9312 1.123
33.9478 1.178
33.9643 1.244
33.9809 1.304
33.9974 1.238
34.0140 1.403
34.0305 1.162
34.0470 1.370
34.0636 1.090
34.0801 1.414
34.0967 1.222
34.1132 1.299
34.1298 1.277
34.1463 1.266
34.1629 1.189
34.1794 1.375
34.1960 1.315
34.2125 1.414
34.2290 1.332
34.2456 1.408
34.2621 1.321
34.2787 1.463
34.2952 1.408
34.3118 1.342
34.3283 1.205
34.3449 1.353
34.3614 1.266
34.3780 1.551
34.3945 1.414
34.4110 1.584
34.4276 1.321
34.4441 1.321
34.4607 1.507
34.4772 1.468
34.4938 1.490
34.5103 1.534
34.5269 1.523
34.5434 1.463
34.5600 1.605
34.5765 1.923
34.5930 1.584
34.6096 1.770
34.6261 1.918
34.6427 1.852
34.6592 2.033
34.6758 2.208
34.6923 2.362
34.7089 2.488
34.7254 2.723
34.7420 3.008
34.7585 3.359
34.7750 3.282
34.7916 3.896
34.8081 4.564
34.8247 4.910
34.8412 5.633
34.8578 6.312
34.8743 7.551
34.8909 8.542
34.9074 10.405
34.9240 12.679
34.9405 15.249
34.9570 18.258
34.9736 23.332
34.9901 27.545
35.0067 35.216
35.0232 42.373
35.0398 47.556
35.0563 49.468
35.0729 47.392
35.0894 41.518
35.1060 36.367
35.1225 31.704
35.1390 29.041
35.1556 25.556
35.1721 21.282
35.1887 15.485
35.2052 10.729
35.2218 7.507
35.2383 5.918
35.2549 4.734
35.2714 3.622
35.2879 3.107
35.3045 3.003
35.3210 2.822
35.3376 2.521
35.3541 2.225
35.3707 2.126
35.3872 2.142
35.4038 1.874
35.4203 1.726
35.4369 1.863
35.4534 1.584
35.4699 1.573
35.4865 1.578
35.5030 1.808
35.5196 1.479
35.5361 1.721
35.5527 1.627
35.5692 1.419
35.5858 1.496
35.6023 1.370
35.6189 1.447
35.6354 1.222
35.6519 1.370
35.6685 1.332
35.6850 1.271
35.7016 1.260
35.7181 1.315
35.7347 1.299
35.7512 1.145
35.7678 1.140
35.7843 1.271
35.8009 1.326
35.8174 1.195
35.8339 1.271
35.8505 1.293
35.8670 1.244
35.8836 1.134
35.9001 1.200
35.9167 1.249
35.9332 1.145
35.9498 1.277
35.9663 1.145
35.9829 1.101
35.9994 1.162
36.0159 1.233
36.0325 1.288
36.0490 1.145
36.0656 1.178
36.0821 1.085
36.0987 1.134
36.1152 1.151
36.1318 1.189
36.1483 1.129
36.1649 0.964
36.1814 1.167
36.1979 1.008
36.2145 1.063
36.2310 1.074
36.2476 0.981
36.2641 1.074
36.2807 1.189
36.2972 1.123
36.3138 1.140
36.3303 1.178
36.3469 1.156
36.3634 1.123
36.3799 1.205
36.3965 0.953
36.4130 1.266
36.4296 1.129
36.4461 1.205
36.4627 1.145
36.4792 1.200
36.4958 1.162
36.5123 1.129
36.5289 1.079
36.5454 0.937
36.5619 1.222
36.5785 1.074
36.5950 1.195
36.6116 1.332
36.6281 1.348
36.6447 1.145
36.6612 1.058
36.6778 1.074
36.6943 1.134
36.7109 1.173
36.7274 1.304
36.7439 1.178
36.7605 1.090
36.7770 1.101
36.7936 1.052
36.8101 1.162
36.8267 1.134
36.8432 1.003
36.8598 1.036
36.8763 1.222
36.8929 1.222
36.9094 1.200
36.9259 0.992
36.9425 1.008
36.9590 1.079
36.9756 1.145
36.9921 1.216
37.0087 1.173
37.0252 1.052
37.0418 1.129
37.0583 1.140
37.0749 1.096
37.0914 1.244
37.1079 1.200
37.1245 1.129
37.1410 1.140
37.1576 1.266
37.1741 1.266
37.1907 1.293
37.2072 1.200
37.2238 1.162
37.2403 1.260
37.2569 1.304
37.2734 1.507
37.2899 1.523
37.3065 1.534
37.3230 1.589
37.3396 1.742
37.3561 1.545
37.3727 1.616
37.3892 1.732
37.4058 2.077
37.4223 2.362
37.4389 2.663
37.4554 2.581
37.4719 2.992
37.4885 3.408
37.5050 3.929
37.5216 4.493
37.5381 5.025
37.5547 6.093
37.5712 7.408
37.5878 8.740
37.6043 10.153
37.6209 13.436
37.6374 15.353
37.6539 18.214
37.6705 19.666
37.6870 19.890
37.7036 17.732
37.7201 15.605
37.7367 13.490
37.7532 12.921
37.7698 11.715
37.7863 10.110
37.8029 9.036
37.8194 6.647
37.8359 4.844
37.8525 3.726
37.8690 2.926
37.8856 2.405
37.9021 2.115
37.9187 1.759
37.9352 1.814
37.9518 1.540
37.9683 1.605
37.9848 1.348
38.0014 1.419
38.0179 1.184
38.0345 1.408
38.0510 1.392
38.0676 1.260
38.0841 1.370
38.1007 1.205
38.1172 1.178
38.1338 1.047
38.1503 1.244
38.1668 1.003
38.1834 1.129
38.1999 1.156
38.2165 1.041
38.2330 1.112
38.2496 1.063
38.2661 1.052
38.2827 1.167
38.2992 0.948
38.3158 0.997
38.3323 1.140
38.3488 0.986
38.3654 1.068
38.3819 1.052
38.3985 1.047
38.4150 1.162
38.4316 1.140
38.4481 0.981
38.4647 1.068
38.4812 1.030
38.4978 0.953
38.5143 1.074
38.5308 0.959
38.5474 1.063
38.5639 0.904
38.5805 1.058
38.5970 0.866
38.6136 0.855
38.6301 0.975
38.6467 1.096
38.6632 0.888
38.6798 0.970
38.6963 1.003
38.7128 1.047
38.7294 0.975
38.7459 1.085
38.7625 0.959
38.7790 0.986
38.7956 1.030
38.8121 1.008
38.8287 1.079
38.8452 0.986
38.8618 0.959
38.8783 1.014
38.8948 1.014
38.9114 0.970
38.9279 0.959
38.9445 0.915
38.9610 0.844
38.9776 0.833
38.9941 0.888
39.0107 0.844
39.0272 0.827
39.0438 0.937
39.0603 1.019
39.0768 0.882
39.0934 0.975
39.1099 0.860
39.1265 0.910
39.1430 0.953
39.1596 0.904
39.1761 0.964
39.1927 0.921
39.2092 0.871
39.2258 0.789
39.2423 0.849
39.2588 0.910
39.2754 0.992
39.2919 0.849
39.3085 1.030
39.3250 0.899
39.3416 0.921
39.3581 0.932
39.3747 0.822
39.3912 0.811
39.4078 0.773
39.4243 0.926
39.4408 0.942
39.4574 0.833
39.4739 0.877
39.4905 0.921
39.5070 0.926
39.5236 0.882
39.5401 0.784
39.5567 0.910
39.5732 0.805
39.5898 0.844
39.6063 0.838
39.6228 0.866
39.6394 0.811
39.6559 0.795
39.6725 0.805
39.6890 0.795
39.7056 0.986
39.7221 1.079
39.7387 0.888
39.7552 0.795
39.7718 0.888
39.7883 0.866
39.8048 0.932
39.8214 0.696
39.8379 0.773
39.8545 0.729
39.8710 0.866
39.8876 0.970
39.9041 0.921
39.9207 0.915
39.9372 0.882
39.9538 0.915
39.9703 0.921
39.9868 0.822
40.0034 0.910
40.0199 0.849
40.0365 0.805
40.0530 0.805
40.0696 0.948
40.0861 0.888
40.1027 0.805
40.1192 0.888
40.1358 0.789
40.1523 0.811
40.1688 0.668
40.1854 0.784
40.2019 0.816
40.2185 0.855
40.2350 0.827
40.2516 0.811
40.2681 0.948
40.2847 0.855
40.3012 0.849
40.3178 0.816
40.3343 0.888
40.3508 0.942
40.3674 0.773
40.3839 0.778
40.4005 0.838
40.4170 0.773
40.4336 0.827
40.4501 0.751
40.4667 0.811
40.4832 0.762
40.4998 0.789
40.5163 0.871
40.5328 0.822
40.5494 0.926
40.5659 0.833
40.5825 0.893
40.5990 0.992
40.6156 0.855
40.6321 0.789
40.6487 0.915
40.6652 0.948
40.6818 0.849
40.6983 0.877
40.7148 0.822
40.7314 0.904
40.7479 0.871
40.7645 0.866
40.7810 0.751
40.7976 0.844
40.8141 0.827
40.8307 0.833
40.8472 0.784
40.8637 0.789
40.8803 0.866
40.8968 0.882
40.9134 0.871
40.9299 0.833
40.9465 0.893
40.9630 0.970
40.9796 0.696
40.9961 0.773
41.0127 0.844
41.0292 0.942
41.0457 0.707
41.0623 0.893
41.0788 0.860
41.0954 0.751
41.1119 0.767
41.1285 0.767
41.1450 0.745
41.1616 0.866
41.1781 0.888
41.1947 0.690
41.2112 0.882
41.2277 0.800
41.2443 0.822
41.2608 0.805
41.2774 0.910
41.2939 0.745
41.3105 0.789
41.3270 0.756
41.3436 0.855
41.3601 0.860
41.3767 0.866
41.3932 0.888
41.4097 0.926
41.4263 0.811
41.4428 0.981
41.4594 1.068
41.4759 1.047
41.4925 1.036
41.5090 1.118
41.5256 1.227
41.5421 1.222
41.5587 1.321
41.5752 1.403
41.5917 1.162
41.6083 1.025
41.6248 1.244
41.6414 1.211
41.6579 1.145
41.6745 1.063
41.6910 1.047
41.7076 1.107
41.7241 1.189
41.7407 1.068
41.7572 0.975
41.7737 1.014
41.7903 0.981
41.8068 1.052
41.8234 0.953
41.8399 0.970
41.8565 0.970
41.8730 1.058
41.8896 1.036
41.9061 0.997
41.9227 1.074
41.9392 0.981
41.9557 1.014
41.9723 0.981
41.9888 1.047
42.0054 0.937
42.0219 0.981
42.0385 1.107
42.0550 0.964
42.0716 1.036
42.0881 0.888
42.1047 0.997
42.1212 0.893
42.1377 0.910
42.1543 1.140
42.1708 0.970
42.1874 1.025
42.2039 1.090
42.2205 0.932
42.2370 1.096
42.2536 1.101
42.2701 0.959
42.2867 0.948
42.3032 0.975
42.3197 1.123
42.3363 1.156
42.3528 0.921
42.3694 0.992
42.3859 1.068
42.4025 1.151
42.4190 0.948
42.4356 1.058
42.4521 1.162
42.4687 1.134
42.4852 1.041
42.5017 1.167
42.5183 1.145
42.5348 1.189
42.5514 1.145
42.5679 1.156
42.5845 1.030
42.6010 1.079
42.6176 1.189
42.6341 1.304
42.6507 1.304
42.6672 1.282
42.6837 1.452
42.7003 1.397
42.7168 1.485
42.7334 1.501
42.7499 1.408
42.7665 1.595
42.7830 1.830
42.7996 1.605
42.8161 1.868
42.8327 1.879
42.8492 2.066
42.8657 2.164
42.8823 2.477
42.8988 2.663
42.9154 2.899
42.9319 3.381
42.9485 3.836
42.9650 4.285
42.9816 4.515
42.9981 4.849
43.0147 5.764
43.0312 7.233
43.0477 8.296
43.0643 9.030
43.0808 10.866
43.0974 12.181
43.1139 15.392
43.1305 18.422
43.1470 22.723
43.1636 27.321
43.1801 32.356
43.1967 38.992
43.2132 45.321
43.2297 48.362
43.2463 48.137
43.2628 42.553
43.2794 36.619
43.2959 31.326
43.3125 28.932
43.3290 27.271
43.3456 25.984
43.3621 23.863
43.3787 19.726
43.3952 14.400
43.4117 10.104
43.4283 7.501
43.4448 5.940
43.4614 4.586
43.4779 3.468
43.4945 3.277
43.5110 2.734
43.5276 2.592
43.5441 2.345
43.5606 2.296
43.5772 1.868
43.5937 1.863
43.6103 1.644
43.6268 1.616
43.6434 1.611
43.6599 1.584
43.6765 1.392
43.6930 1.474
43.7096 1.447
43.7261 1.233
43.7426 1.403
43.7592 1.255
43.7757 1.216
43.7923 1.238
43.8088 1.184
43.8254 1.227
43.8419 1.222
43.8585 1.156
43.8750 1.129
43.8916 1.003
43.9081 0.986
43.9246 1.085
43.9412 1.041
43.9577 1.008
43.9743 1.063
43.9908 1.112
44.0074 1.025
44.0239 0.986
44.0405 0.942
44.0570 0.827
44.0736 0.882
44.0901 1.025
44.1066 0.899
44.1232 0.981
44.1397 0.975
44.1563 0.866
44.1728 0.877
44.1894 0.970
44.2059 0.992
44.2225 0.937
44.2390 0.910
44.2556 0.838
44.2721 0.795
44.2886 0.921
44.3052 0.915
44.3217 1.003
44.3383 0.767
44.3548 0.838
44.3714 0.970
44.3879 0.833
44.4045 0.833
44.4210 0.910
44.4376 0.849
44.4541 0.805
44.4706 0.871
44.4872 0.877
44.5037 0.855
44.5203 0.915
44.5368 0.816
44.5534 0.948
44.5699 0.784
44.5865 0.888
44.6030 0.811
44.6196 0.871
44.6361 0.800
44.6526 0.816
44.6692 0.910
44.6857 0.740
44.7023 0.888
44.7188 0.855
44.7354 0.838
44.7519 0.767
44.7685 0.789
44.7850 0.805
44.8016 0.849
44.8181 0.838
44.8346 0.718
44.8512 0.915
44.8677 0.871
44.8843 0.855
44.9008 0.926
44.9174 0.784
44.9339 0.838
44.9505 0.729
44.9670 0.795
44.9836 0.756
45.0001 0.789
45.0166 0.877
45.0332 0.789
45.0497 0.734
45.0663 0.816
45.0828 0.866
45.0994 0.805
45.1159 0.751
45.1325 0.647
45.1490 0.926
45.1656 0.915
45.1821 0.800
45.1986 0.756
45.2152 0.778
45.2317 0.805
45.2483 0.795
45.2648 0.888
45.2814 0.871
45.2979 0.729
45.3145 0.833
45.3310 0.811
45.3476 0.773
45.3641 0.718
45.3806 0.844
45.3972 0.767
45.4137 0.685
45.4303 0.871
45.4468 0.882
45.4634 0.707
45.4799 0.871
45.4965 0.663
45.5130 0.827
45.5296 0.838
45.5461 0.762
45.5626 0.696
45.5792 0.910
45.5957 0.701
45.6123 0.729
45.6288 0.778
45.6454 0.822
45.6619 0.740
45.6785 0.784
45.6950 0.833
45.7116 0.789
45.7281 0.723
45.7446 0.904
45.7612 0.756
45.7777 0.641
45.7943 0.778
45.8108 0.838
45.8274 0.800
45.8439 0.838
45.8605 0.773
45.8770 0.811
45.8936 0.849
45.9101 0.877
45.9266 0.899
45.9432 0.986
45.9597 1.003
45.9763 1.003
45.9928 1.151
46.0094 1.101
46.0259 1.123
46.0425 1.337
46.0590 1.337
46.0756 1.282
46.0921 1.019
46.1086 1.085
46.1252 1.041
46.1417 0.975
46.1583 1.112
46.1748 1.036
46.1914 0.959
46.2079 0.992
46.2245 0.899
46.2410 0.877
46.2575 0.707
46.2741 0.690
46.2906 0.784
46.3072 0.833
46.3237 0.767
46.3403 0.762
46.3568 0.652
46.3734 0.696
46.3899 0.740
46.4065 0.690
46.4230 0.729
46.4395 0.712
46.4561 0.789
46.4726 0.625
46.4892 0.729
46.5057 0.789
46.5223 0.822
46.5388 0.745
46.5554 0.734
46.5719 0.652
46.5885 0.674
46.6050 0.827
46.6215 0.740
46.6381 0.789
46.6546 0.668
46.6712 0.767
46.6877 0.734
46.7043 0.729
46.7208 0.734
46.7374 0.674
46.7539 0.751
46.7705 0.833
46.7870 0.745
46.8035 0.778
46.8201 0.734
46.8366 0.597
46.8532 0.767
46.8697 0.729
46.8863 0.668
46.9028 0.723
46.9194 0.707
46.9359 0.860
46.9525 0.762
46.9690 0.855
46.9855 0.756
47.0021 0.904
47.0186 0.784
47.0352 0.663
47.0517 0.729
47.0683 0.734
47.0848 0.712
47.1014 0.795
47.1179 0.723
47.1345 0.756
47.1510 0.526
47.1675 0.723
47.1841 0.658
47.2006 0.707
47.2172 0.592
47.2337 0.586
47.2503 0.679
47.2668 0.614
47.2834 0.734
47.2999 0.542
47.3165 0.663
47.3330 0.723
47.3495 0.668
47.3661 0.658
47.3826 0.707
47.3992 0.740
47.4157 0.619
47.4323 0.805
47.4488 0.652
47.4654 0.679
47.4819 0.625
47.4985 0.663
47.5150 0.707
47.5315 0.630
47.5481 0.773
47.5646 0.668
47.5812 0.685
47.5977 0.685
47.6143 0.652
47.6308 0.734
47.6474 0.674
47.6639 0.570
47.6805 0.740
47.6970 0.767
47.7135 0.614
47.7301 0.586
47.7466 0.740
47.7632 0.641
47.7797 0.630
47.7963 0.658
47.8128 0.647
47.8294 0.696
47.8459 0.668
47.8625 0.614
47.8790 0.685
47.8955 0.729
47.9121 0.674
47.9286 0.658
47.9452 0.559
47.9617 0.603
47.9783 0.762
47.9948 0.663
48.0114 0.592
48.0279 0.636
48.0445 0.701
48.0610 0.778
48.0775 0.542
48.0941 0.723
48.1106 0.614
48.1272 0.641
48.1437 0.679
48.1603 0.679
48.1768 0.564
48.1934 0.586
48.2099 0.707
48.2265 0.564
48.2430 0.745
48.2595 0.707
48.2761 0.614
48.2926 0.460
48.3092 0.608
48.3257 0.619
48.3423 0.597
48.3588 0.619
48.3754 0.647
48.3919 0.586
48.4085 0.674
48.4250 0.619
48.4415 0.559
48.4581 0.581
48.4746 0.751
48.4912 0.619
48.5077 0.718
48.5243 0.685
48.5408 0.636
48.5574 0.570
48.5739 0.575
48.5905 0.619
48.6070 0.625
48.6235 0.603
48.6401 0.663
48.6566 0.630
48.6732 0.597
48.6897 0.625
48.7063 0.652
48.7228 0.586
48.7394 0.603
48.7559 0.586
48.7725 0.685
48.7890 0.548
48.8055 0.707
48.8221 0.674
48.8386 0.658
48.8552 0.532
48.8717 0.652
48.8883 0.542
48.9048 0.641
48.9214 0.701
48.9379 0.608
48.9545 0.641
48.9710 0.707
48.9875 0.641
49.0041 0.619
49.0206 0.690
49.0372 0.564
49.0537 0.603
49.0703 0.652
49.0868 0.674
49.1034 0.597
49.1199 0.570
49.1364 0.581
49.1530 0.679
49.1695 0.510
49.1861 0.570
49.2026 0.685
49.2192 0.751
49.2357 0.636
49.2523 0.603
49.2688 0.751
49.2854 0.696
49.3019 0.625
49.3184 0.647
49.3350 0.575
49.3515 0.493
49.3681 0.701
49.3846 0.625
49.4012 0.668
49.4177 0.586
49.4343 0.641
49.4508 0.773
49.4674 0.636
49.4839 0.636
49.5004 0.652
49.5170 0.619
49.5335 0.647
49.5501 0.707
49.5666 0.701
49.5832 0.586
49.5997 0.608
49.6163 0.597
49.6328 0.614
49.6494 0.603
49.6659 0.608
49.6824 0.641
49.6990 0.647
49.7155 0.559
49.7321 0.674
49.7486 0.679
49.7652 0.532
49.7817 0.532
49.7983 0.608
49.8148 0.707
49.8314 0.537
49.8479 0.614
49.8644 0.652
49.8810 0.608
49.8975 0.740
49.9141 0.526
49.9306 0.641
49.9472 0.564
49.9637 0.625
49.9803 0.603
49.9968 0.532
50.0134 0.795
50.0299 0.553
50.0464 0.570
50.0630 0.625
50.0795 0.542
50.0961 0.690
50.1126 0.701
50.1292 0.592
50.1457 0.608
50.1623 0.575
50.1788 0.559
50.1954 0.592
50.2119 0.668
50.2284 0.586
50.2450 0.581
50.2615 0.668
50.2781 0.471
50.2946 0.570
50.3112 0.532
50.3277 0.586
50.3443 0.647
50.3608 0.553
50.3774 0.542
50.3939 0.652
50.4104 0.614
50.4270 0.586
50.4435 0.734
50.4601 0.745
50.4766 0.685
50.4932 0.679
50.5097 0.701
50.5263 0.625
50.5428 0.707
50.5594 0.608
50.5759 0.647
50.5924 0.668
50.6090 0.712
50.6255 0.564
50.6421 0.707
50.6586 0.762
50.6752 0.734
50.6917 0.701
50.7083 0.767
50.7248 0.636
50.7414 0.630
50.7579 0.597
50.7744 0.696
50.7910 0.619
50.8075 0.619
50.8241 0.674
50.8406 0.701
50.8572 0.773
50.8737 0.668
50.8903 0.647
50.9068 0.707
50.9234 0.690
50.9399 0.745
50.9564 0.756
50.9730 0.603
50.9895 0.668
51.0061 0.625
51.0226 0.625
51.0392 0.668
51.0557 0.658
51.0723 0.570
51.0888 0.701
51.1054 0.707
51.1219 0.685
51.1384 0.668
51.1550 0.784
51.1715 0.701
51.1881 0.625
51.2046 0.658
51.2212 0.685
51.2377 0.729
51.2543 0.581
51.2708 0.723
51.2874 0.603
51.3039 0.696
51.3204 0.827
51.3370 0.740
51.3535 0.877
51.3701 0.795
51.3866 0.822
51.4032 0.800
51.4197 0.745
51.4363 0.652
51.4528 0.729
51.4694 0.882
51.4859 0.767
51.5024 0.712
51.5190 0.800
51.5355 0.701
51.5521 0.581
51.5686 0.581
51.5852 0.915
51.6017 0.723
51.6183 0.729
51.6348 0.718
51.6514 0.701
51.6679 0.816
51.6844 0.712
51.7010 0.816
51.7175 0.795
51.7341 0.767
51.7506 0.844
51.7672 0.789
51.7837 0.723
51.8003 0.849
51.8168 0.932
51.8333 0.833
51.8499 0.981
51.8664 0.910
51.8830 0.888
51.8995 0.953
51.9161 0.921
51.9326 0.975
51.9492 1.145
51.9657 1.090
51.9823 1.074
51.9988 1.216
52.0153 1.189
52.0319 1.392
52.0484 1.660
52.0650 1.562
52.0815 1.781
52.0981 2.005
52.1146 2.230
52.1312 2.449
52.1477 2.679
52.1643 3.118
52.1808 3.348
52.1973 3.430
52.2139 4.334
52.2304 4.499
52.2470 5.512
52.2635 6.658
52.2801 7.496
52.2966 8.855
52.3132 10.351
52.3297 12.553
52.3463 15.573
52.3628 16.685
52.3793 19.178
52.3959 20.203
52.4124 19.485
52.4290 17.562
52.4455 15.200
52.4621 12.592
52.4786 11.101
52.4952 10.603
52.5117 11.211
52.5283 11.359
52.5448 10.482
52.5613 9.353
52.5779 7.611
52.5944 5.929
52.6110 4.329
52.6275 3.107
52.6441 2.592
52.6606 2.099
52.6772 1.721
52.6937 1.699
52.7103 1.611
52.7268 1.468
52.7433 1.222
52.7599 1.211
52.7764 1.074
52.7930 1.041
52.8095 1.205
52.8261 1.085
52.8426 0.855
52.8592 0.953
52.8757 0.882
52.8923 0.773
52.9088 0.915
52.9253 0.707
52.9419 0.942
52.9584 0.811
52.9750 0.926
52.9915 0.773
53.0081 0.844
53.0246 0.745
53.0412 0.816
53.0577 0.696
53.0743 0.822
53.0908 0.685
53.1073 0.789
53.1239 0.762
53.1404 0.805
53.1570 0.701
53.1735 0.784
53.1901 0.745
53.2066 0.729
53.2232 0.762
53.2397 0.701
53.2563 0.614
53.2728 0.658
53.2893 0.625
53.3059 0.696
53.3224 0.674
53.3390 0.668
53.3555 0.614
53.3721 0.745
53.3886 0.575
53.4052 0.570
53.4217 0.619
53.4383 0.668
53.4548 0.575
53.4713 0.751
53.4879 0.685
53.5044 0.663
53.5210 0.784
53.5375 0.734
53.5541 0.597
53.5706 0.521
53.5872 0.515
53.6037 0.658
53.6203 0.625
53.6368 0.641
53.6533 0.603
53.6699 0.575
53.6864 0.652
53.7030 0.701
53.7195 0.674
53.7361 0.608
53.7526 0.658
53.7692 0.608
53.7857 0.630
53.8023 0.663
53.8188 0.641
53.8353 0.542
53.8519 0.592
53.8684 0.608
53.8850 0.685
53.9015 0.564
53.9181 0.570
53.9346 0.559
53.9512 0.608
53.9677 0.553
53.9843 0.592
54.0008 0.592
54.0173 0.581
54.0339 0.564
54.0504 0.712
54.0670 0.614
54.0835 0.652
54.1001 0.482
54.1166 0.619
54.1332 0.575
54.1497 0.685
54.1663 0.636
54.1828 0.592
54.1993 0.548
54.2159 0.608
54.2324 0.575
54.2490 0.564
54.2655 0.614
54.2821 0.625
54.2986 0.641
54.3152 0.570
54.3317 0.597
54.3483 0.636
54.3648 0.542
54.3813 0.537
54.3979 0.619
54.4144 0.471
54.4310 0.647
54.4475 0.592
54.4641 0.515
54.4806 0.510
54.4972 0.641
54.5137 0.521
54.5302 0.636
54.5468 0.542
54.5633 0.625
54.5799 0.570
54.5964 0.608
54.6130 0.652
54.6295 0.526
54.6461 0.685
54.6626 0.625
54.6792 0.553
54.6957 0.603
54.7122 0.542
54.7288 0.564
54.7453 0.625
54.7619 0.603
54.7784 0.499
54.7950 0.652
54.8115 0.614
54.8281 0.411
54.8446 0.614
54.8612 0.537
54.8777 0.575
54.8942 0.652
54.9108 0.674
54.9273 0.592
54.9439 0.641
54.9604 0.597
54.9770 0.608
54.9935 0.647
55.0101 0.575
55.0266 0.586
55.0432 0.619
55.0597 0.592
55.0762 0.608
55.0928 0.636
55.1093 0.668
55.1259 0.718
55.1424 0.619
55.1590 0.663
55.1755 0.718
55.1921 0.762
55.2086 0.800
55.2252 0.718
55.2417 0.685
55.2582 0.696
55.2748 0.668
55.2913 0.690
55.3079 0.712
55.3244 0.773
55.3410 0.641
55.3575 0.712
55.3741 0.619
55.3906 0.690
55.4072 0.827
55.4237 0.723
55.4402 0.701
55.4568 0.723
55.4733 0.559
55.4899 0.751
55.5064 0.773
55.5230 0.745
55.5395 0.718
55.5561 0.608
55.5726 0.614
55.5892 0.767
55.6057 0.740
55.6222 0.668
55.6388 0.614
55.6553 0.663
55.6719 0.685
55.6884 0.685
55.7050 0.537
55.7215 0.729
55.7381 0.734
55.7546 0.773
55.7712 0.707
55.7877 0.756
55.8042 0.668
55.8208 0.756
55.8373 0.696
55.8539 0.658
55.8704 0.690
55.8870 0.592
55.9035 0.756
55.9201 0.751
55.9366 0.811
55.9532 0.641
55.9697 0.652
55.9862 0.696
56.0028 0.767
56.0193 0.734
56.0359 0.679
56.0524 0.778
56.0690 0.603
56.0855 0.723
56.1021 0.816
56.1186 0.647
56.1352 0.740
56.1517 0.707
56.1682 0.740
56.1848 0.658
56.2013 0.762
56.2179 0.729
56.2344 0.729
56.2510 0.795
56.2675 0.745
56.2841 0.778
56.3006 0.734
56.3172 0.751
56.3337 0.838
56.3502 0.696
56.3668 0.816
56.3833 0.729
56.3999 0.734
56.4164 0.904
56.4330 0.838
56.4495 0.849
56.4661 0.734
56.4826 0.915
56.4992 0.811
56.5157 0.921
56.5322 0.849
56.5488 0.833
56.5653 0.729
56.5819 0.948
56.5984 0.833
56.6150 0.926
56.6315 0.811
56.6481 0.921
56.6646 1.101
56.6812 0.751
56.6977 0.986
56.7142 0.992
56.7308 0.981
56.7473 1.107
56.7639 1.019
56.7804 1.167
56.7970 1.090
56.8135 1.326
56.8301 1.392
56.8466 1.425
56.8632 1.447
56.8797 1.753
56.8962 1.710
56.9128 1.721
56.9293 2.082
56.9459 2.022
56.9624 2.279
56.9790 2.559
56.9955 2.860
57.0121 3.112
57.0286 3.523
57.0452 3.715
57.0617 4.477
57.0782 4.838
57.0948 5.288
57.1113 6.055
57.1279 7.079
57.1444 8.389
57.1610 9.321
57.1775 11.058
57.1941 13.058
57.2106 15.392
57.2272 18.548
57.2437 21.748
57.2602 25.808
57.2768 30.000
57.2933 33.847
57.3099 37.458
57.3264 37.605
57.3430 38.279
57.3595 32.367
57.3761 27.271
57.3926 22.510
57.4091 20.389
57.4257 19.167
57.4422 19.107
57.4588 20.115
57.4753 20.022
57.4919 19.112
57.5084 16.690
57.5250 13.255
57.5415 9.912
57.5581 7.162
57.5746 5.348
57.5911 4.307
57.6077 3.704
57.6242 2.932
57.6408 2.658
57.6573 2.268
57.6739 1.962
57.6904 2.033
57.7070 1.841
57.7235 1.638
57.7401 1.419
57.7566 1.381
57.7731 1.282
57.7897 1.085
57.8062 1.145
57.8228 1.107
57.8393 1.063
57.8559 0.981
57.8724 0.932
57.8890 1.019
57.9055 0.942
57.9221 0.942
57.9386 0.915
57.9551 1.151
57.9717 0.899
57.9882 0.860
58.0048 0.899
58.0213 0.959
58.0379 0.915
58.0544 0.882
58.0710 0.838
58.0875 0.718
58.1041 0.849
58.1206 0.805
58.1371 0.926
58.1537 0.718
58.1702 0.822
58.1868 0.800
58.2033 0.734
58.2199 0.756
58.2364 0.636
58.2530 0.838
58.2695 0.756
58.2861 0.904
58.3026 0.816
58.3191 0.855
58.3357 0.795
58.3522 0.701
58.3688 0.811
58.3853 0.685
58.4019 0.663
58.4184 0.707
58.4350 0.707
58.4515 0.685
58.4681 0.827
58.4846 0.690
58.5011 0.625
58.5177 0.751
58.5342 0.658
58.5508 0.844
58.5673 0.690
58.5839 0.619
58.6004 0.652
58.6170 0.663
58.6335 0.647
58.6501 0.701
58.6666 0.647
58.6831 0.740
58.6997 0.696
58.7162 0.740
58.7328 0.647
58.7493 0.619
58.7659 0.636
58.7824 0.608
58.7990 0.647
58.8155 0.630
58.8321 0.526
58.8486 0.707
58.8651 0.586
58.8817 0.636
58.8982 0.652
58.9148 0.564
58.9313 0.630
58.9479 0.674
58.9644 0.718
58.9810 0.592
58.9975 0.608
59.0141 0.712
59.0306 0.636
59.0471 0.696
59.0637 0.762
59.0802 0.789
59.0968 0.619
59.1133 0.641
59.1299 0.603
59.1464 0.674
59.1630 0.674
59.1795 0.718
59.1961 0.729
59.2126 0.597
59.2291 0.586
59.2457 0.641
59.2622 0.652
59.2788 0.816
59.2953 0.603
59.3119 0.816
59.3284 0.849
59.3450 0.833
59.3615 0.729
59.3781 0.773
59.3946 0.816
59.4111 0.899
59.4277 0.921
59.4442 0.855
59.4608 0.997
59.4773 1.178
59.4939 1.167
59.5104 1.260
59.5270 1.359
59.5435 1.430
59.5601 1.512
59.5766 1.364
59.5931 1.326
59.6097 1.452
59.6262 1.282
59.6428 0.970
59.6593 1.036
59.6759 1.068
59.6924 0.959
59.7090 1.036
59.7255 1.101
59.7421 0.975
59.7586 0.877
59.7751 0.915
59.7917 0.871
59.8082 0.729
59.8248 0.745
59.8413 0.663
59.8579 0.674
59.8744 0.614
59.8910 0.636
59.9075 0.663
59.9241 0.652
59.9406 0.570
59.9571 0.521
59.9737 0.630
59.9902 0.570
60.0068 0.570
60.0233 0.619
60.0399 0.586
60.0564 0.575
60.0730 0.679
60.0895 0.575
60.1060 0.674
60.1226 0.625
60.1391 0.564
60.1557 0.559
60.1722 0.542
60.1888 0.542
60.2053 0.658
60.2219 0.542
60.2384 0.641
60.2550 0.586
60.2715 0.559
60.2880 0.668
60.3046 0.515
60.3211 0.685
60.3377 0.668
60.3542 0.674
60.3708 0.592
60.3873 0.674
60.4039 0.668
60.4204 0.570
60.4370 0.603
60.4535 0.679
60.4700 0.647
60.4866 0.570
60.5031 0.679
60.5197 0.592
60.5362 0.751
60.5528 0.696
60.5693 0.690
60.5859 0.723
60.6024 0.663
60.6190 0.811
60.6355 0.773
60.6520 0.860
60.6686 0.866
60.6851 0.773
60.7017 0.833
60.7182 0.888
60.7348 0.926
60.7513 0.921
60.7679 1.047
60.7844 0.981
60.8010 1.293
60.8175 1.200
60.8340 1.403
60.8506 1.485
60.8671 1.496
60.8837 1.627
60.9002 1.726
60.9168 2.307
60.9333 2.373
60.9499 2.603
60.9664 2.526
60.9830 2.389
60.9995 2.614
61.0160 2.592
61.0326 2.745
61.0491 3.123
61.0657 3.463
61.0822 3.797
61.0988 4.132
61.1153 3.797
61.1319 3.753
61.1484 3.222
61.1650 2.696
61.1815 2.411
61.1980 2.093
61.2146 2.027
61.2311 2.186
61.2477 2.285
61.2642 2.175
61.2808 2.142
61.2973 1.726
61.3139 1.595
61.3304 1.299
61.3470 1.238
61.3635 1.085
61.3800 0.827
61.3966 0.888
61.4131 0.723
61.4297 0.767
61.4462 0.658
61.4628 0.751
61.4793 0.668
61.4959 0.652
61.5124 0.592
61.5290 0.614
61.5455 0.608
61.5620 0.630
61.5786 0.641
61.5951 0.510
61.6117 0.619
61.6282 0.603
61.6448 0.548
61.6613 0.636
61.6779 0.548
61.6944 0.570
61.7110 0.625
61.7275 0.493
61.7440 0.515
61.7606 0.619
61.7771 0.630
61.7937 0.532
61.8102 0.526
61.8268 0.641
61.8433 0.553
61.8599 0.532
61.8764 0.564
61.8930 0.658
61.9095 0.526
61.9260 0.510
61.9426 0.564
61.9591 0.482
61.9757 0.460
61.9922 0.542
62.0088 0.679
62.0253 0.570
62.0419 0.477
62.0584 0.460
62.0750 0.575
62.0915 0.427
62.1080 0.444
62.1246 0.548
62.1411 0.510
62.1577 0.504
62.1742 0.570
62.1908 0.482
62.2073 0.526
62.2239 0.444
62.2404 0.548
62.2570 0.575
62.2735 0.504
62.2900 0.586
62.3066 0.532
62.3231 0.438
62.3397 0.504
62.3562 0.548
62.3728 0.521
62.3893 0.488
62.4059 0.542
62.4224 0.466
62.4390 0.482
62.4555 0.504
62.4720 0.493
62.4886 0.542
62.5051 0.553
62.5217 0.553
62.5382 0.570
62.5548 0.422
62.5713 0.548
62.5879 0.592
62.6044 0.521
62.6210 0.532
62.6375 0.564
62.6540 0.466
62.6706 0.564
62.6871 0.482
62.7037 0.515
62.7202 0.449
62.7368 0.515
62.7533 0.608
62.7699 0.449
62.7864 0.471
62.8029 0.597
62.8195 0.559
62.8360 0.510
62.8526 0.553
62.8691 0.559
62.8857 0.581
62.9022 0.488
62.9188 0.499
62.9353 0.559
62.9519 0.510
62.9684 0.586
62.9849 0.521
63.0015 0.493
63.0180 0.488
63.0346 0.592
63.0511 0.488
63.0677 0.532
63.0842 0.504
63.1008 0.553
63.1173 0.488
63.1339 0.581
63.1504 0.416
63.1669 0.471
63.1835 0.559
63.2000 0.471
63.2166 0.510
63.2331 0.526
63.2497 0.652
63.2662 0.603
63.2828 0.438
63.2993 0.504
63.3159 0.564
63.3324 0.504
63.3489 0.504
63.3655 0.564
63.3820 0.427
63.3986 0.488
63.4151 0.466
63.4317 0.460
63.4482 0.548
63.4648 0.515
63.4813 0.499
63.4979 0.532
63.5144 0.559
63.5309 0.504
63.5475 0.581
63.5640 0.548
63.5806 0.575
63.5971 0.499
63.6137 0.444
63.6302 0.581
63.6468 0.510
63.6633 0.422
63.6799 0.493
63.6964 0.466
63.7129 0.510
63.7295 0.477
63.7460 0.575
63.7626 0.471
63.7791 0.597
63.7957 0.460
63.8122 0.471
63.8288 0.532
63.8453 0.466
63.8619 0.521
63.8784 0.559
63.8949 0.548
63.9115 0.553
63.9280 0.548
63.9446 0.608
63.9611 0.510
63.9777 0.499
63.9942 0.564
64.0108 0.597
64.0273 0.460
64.0439 0.510
64.0604 0.597
64.0769 0.455
64.0935 0.438
64.1100 0.493
64.1266 0.482
64.1431 0.510
64.1597 0.559
64.1762 0.630
64.1928 0.521
64.2093 0.493
64.2259 0.575
64.2424 0.515
64.2589 0.504
64.2755 0.449
64.2920 0.455
64.3086 0.493
64.3251 0.488
64.3417 0.575
64.3582 0.586
64.3748 0.564
64.3913 0.537
64.4079 0.532
64.4244 0.515
64.4409 0.625
64.4575 0.614
64.4740 0.515
64.4906 0.466
64.5071 0.559
64.5237 0.575
64.5402 0.553
64.5568 0.504
64.5733 0.493
64.5899 0.482
64.6064 0.526
64.6229 0.608
64.6395 0.532
64.6560 0.510
64.6726 0.488
64.6891 0.597
64.7057 0.581
64.7222 0.532
64.7388 0.471
64.7553 0.438
64.7719 0.553
64.7884 0.504
64.8049 0.570
64.8215 0.553
64.8380 0.553
64.8546 0.515
64.8711 0.427
64.8877 0.537
64.9042 0.504
64.9208 0.586
64.9373 0.564
64.9539 0.652
64.9704 0.603
64.9869 0.592
65.0035 0.586
65.0200 0.515
65.0366 0.603
65.0531 0.542
65.0697 0.575
65.0862 0.559
65.1028 0.504
65.1193 0.548
65.1359 0.521
65.1524 0.575
65.1689 0.542
65.1855 0.575
65.2020 0.597
65.2186 0.504
65.2351 0.499
65.2517 0.559
65.2682 0.444
65.2848 0.597
65.3013 0.542
65.3179 0.559
65.3344 0.586
65.3509 0.674
65.3675 0.592
65.3840 0.701
65.4006 0.575
65.4171 0.548
65.4337 0.630
65.4502 0.575
65.4668 0.789
65.4833 0.575
65.4999 0.658
65.5164 0.658
65.5329 0.636
65.5495 0.729
65.5660 0.603
65.5826 0.636
65.5991 0.756
65.6157 0.641
65.6322 0.674
65.6488 0.641
65.6653 0.795
65.6818 0.784
65.6984 0.734
65.7149 0.800
65.7315 0.816
65.7480 0.833
65.7646 0.855
65.7811 0.729
65.7977 0.822
65.8142 0.910
65.8308 0.899
65.8473 0.937
65.8638 0.910
65.8804 1.041
65.8969 1.058
65.9135 1.189
65.9300 1.195
65.9466 1.173
65.9631 1.332
65.9797 1.463
65.9962 1.485
66.0128 1.545
66.0293 1.923
66.0458 1.781
66.0624 2.203
66.0789 2.312
66.0955 2.630
66.1120 2.910
66.1286 3.364
66.1451 3.655
66.1617 4.340
66.1782 5.200
66.1948 5.627
66.2113 6.712
66.2278 7.803
66.2444 9.129
66.2609 10.427
66.2775 11.627
66.2940 13.101
66.3106 13.951
66.3271 13.573
66.3437 12.367
66.3602 10.663
66.3768 8.756
66.3933 7.764
66.4098 6.778
66.4264 6.279
66.4429 6.493
66.4595 7.008
66.4760 7.085
66.4926 7.058
66.5091 7.211
66.5257 6.515
66.5422 5.151
66.5588 4.389
66.5753 3.501
66.5918 2.460
66.6084 1.967
66.6249 1.759
66.6415 1.529
66.6580 1.370
66.6746 1.266
66.6911 1.233
66.7077 1.266
66.7242 1.079
66.7408 1.079
66.7573 1.019
66.7738 0.932
66.7904 0.915
66.8069 1.107
66.8235 0.866
66.8400 0.921
66.8566 0.784
66.8731 0.866
66.8897 0.992
66.9062 0.751
66.9228 0.827
66.9393 0.756
66.9558 0.789
66.9724 0.800
66.9889 0.685
67.0055 0.800
67.0220 0.696
67.0386 0.811
67.0551 0.658
67.0717 0.707
67.0882 0.707
67.1048 0.751
67.1213 0.932
67.1378 0.827
67.1544 0.729
67.1709 0.778
67.1875 0.756
67.2040 0.811
67.2206 0.773
67.2371 0.844
67.2537 0.789
67.2702 0.773
67.2868 0.767
67.3033 0.877
67.3198 0.816
67.3364 0.767
67.3529 0.778
67.3695 0.811
67.3860 0.800
67.4026 0.904
67.4191 0.740
67.4357 0.844
67.4522 0.921
67.4688 0.849
67.4853 0.871
67.5018 1.052
67.5184 1.063
67.5349 1.118
67.5515 1.184
67.5680 1.129
67.5846 1.211
67.6011 1.375
67.6177 1.644
67.6342 1.529
67.6508 1.995
67.6673 1.912
67.6838 2.027
67.7004 2.312
67.7169 2.395
67.7335 2.619
67.7500 3.036
67.7666 3.145
67.7831 3.808
67.7997 4.356
67.8162 4.844
67.8328 5.304
67.8493 6.301
67.8658 7.096
67.8824 8.225
67.8989 9.589
67.9155 11.129
67.9320 13.271
67.9486 15.255
67.9651 18.104
67.9817 19.293
67.9982 20.499
68.0148 19.151
68.0313 18.104
68.0478 15.573
68.0644 12.592
68.0809 10.800
68.0975 9.447
68.1140 9.205
68.1306 8.559
68.1471 9.430
68.1637 10.126
68.1802 10.323
68.1968 10.427
68.2133 10.033
68.2298 8.395
68.2464 6.805
68.2629 4.975
68.2795 4.066
68.2960 2.981
68.3126 2.279
68.3291 2.230
68.3457 1.825
68.3622 1.512
68.3787 1.425
68.3953 1.238
68.4118 1.216
68.4284 1.167
68.4449 1.025
68.4615 1.189
68.4780 1.063
68.4946 1.014
68.5111 0.866
68.5277 0.871
68.5442 0.893
68.5607 0.926
68.5773 0.893
68.5938 0.855
68.6104 0.745
68.6269 0.740
68.6435 0.723
68.6600 0.778
68.6766 0.679
68.6931 0.767
68.7097 0.701
68.7262 0.636
68.7427 0.658
68.7593 0.652
68.7758 0.718
68.7924 0.636
68.8089 0.548
68.8255 0.696
68.8420 0.668
68.8586 0.526
68.8751 0.564
68.8917 0.575
68.9082 0.641
68.9247 0.652
68.9413 0.658
68.9578 0.581
68.9744 0.586
68.9909 0.636
69.0075 0.532
69.0240 0.581
69.0406 0.553
69.0571 0.668
69.0737 0.603
69.0902 0.537
69.1067 0.625
69.1233 0.553
69.1398 0.488
69.1564 0.586
69.1729 0.471
69.1895 0.532
69.2060 0.526
69.2226 0.542
69.2391 0.526
69.2557 0.504
69.2722 0.592
69.2887 0.625
69.3053 0.553
69.3218 0.526
69.3384 0.438
69.3549 0.586
69.3715 0.597
69.3880 0.526
69.4046 0.542
69.4211 0.449
69.4377 0.471
69.4542 0.532
69.4707 0.537
69.4873 0.427
69.5038 0.493
69.5204 0.493
69.5369 0.510
69.5535 0.400
69.5700 0.548
69.5866 0.504
69.6031 0.455
69.6197 0.510
69.6362 0.405
69.6527 0.510
69.6693 0.449
69.6858 0.471
69.7024 0.532
69.7189 0.537
69.7355 0.553
69.7520 0.614
69.7686 0.477
69.7851 0.564
69.8017 0.603
69.8182 0.455
69.8347 0.586
69.8513 0.575
69.8678 0.537
69.8844 0.482
69.9009 0.515
69.9175 0.542
69.9340 0.515
69.9506 0.619
69.9671 0.553
69.9837 0.641
70.0002 0.482
