'Id: "" Comment: "" Operator: "Administrator" Anode: "Cu" Scantype: "Locked Coupled" TimePerStep: "182.5" X: "0" Y: "0" Z: "0" 
20.0000 2.888
20.0165 2.948
20.0331 3.079
20.0496 2.937
20.0662 2.986
20.0827 2.855
20.0993 2.767
20.1158 2.778
20.1324 2.647
20.1489 2.893
20.1655 2.679
20.1820 2.860
20.1985 2.860
20.2151 2.882
20.2316 2.844
20.2482 2.816
20.2647 2.581
20.2813 2.822
20.2978 2.789
20.3144 2.871
20.3309 2.953
20.3475 2.805
20.3640 2.641
20.3805 2.833
20.3971 2.838
20.4136 2.690
20.4302 2.932
20.4467 3.151
20.4633 2.625
20.4798 2.816
20.4964 2.712
20.5129 2.789
20.5295 3.118
20.5460 2.751
20.5625 2.745
20.5791 2.833
20.5956 2.849
20.6122 2.762
20.6287 2.800
20.6453 2.723
20.6618 2.849
20.6784 2.882
20.6949 2.510
20.7115 2.822
20.7280 2.679
20.7445 2.756
20.7611 2.762
20.7776 2.740
20.7942 2.521
20.8107 2.603
20.8273 2.641
20.8438 2.608
20.8604 2.460
20.8769 2.800
20.8935 2.690
20.9100 2.751
20.9265 2.559
20.9431 2.734
20.9596 2.449
20.9762 2.608
20.9927 2.575
21.0093 2.652
21.0258 2.625
21.0424 2.619
21.0589 2.652
21.0755 2.855
21.0920 2.504
21.1085 2.674
21.1251 2.915
21.1416 2.652
21.1582 2.860
21.1747 2.668
21.1913 2.603
21.2078 2.515
21.2244 2.723
21.2409 2.564
21.2575 2.378
21.2740 2.477
21.2905 2.482
21.3071 2.537
21.3236 2.641
21.3402 2.740
21.3567 2.581
21.3733 2.592
21.3898 2.460
21.4064 2.581
21.4229 2.405
21.4394 2.581
21.4560 2.603
21.4725 2.597
21.4891 2.575
21.5056 2.455
21.5222 2.822
21.5387 2.679
21.5553 2.367
21.5718 2.674
21.5884 2.625
21.6049 2.471
21.6214 2.466
21.6380 2.701
21.6545 2.559
21.6711 2.663
21.6876 2.466
21.7042 2.608
21.7207 2.652
21.7373 2.499
21.7538 2.625
21.7704 2.822
21.7869 2.679
21.8034 2.674
21.8200 2.811
21.8365 2.433
21.8531 2.345
21.8696 2.515
21.8862 2.636
21.9027 2.515
21.9193 2.597
21.9358 2.586
21.9524 2.542
21.9689 2.405
21.9854 2.838
22.0020 2.521
22.0185 2.444
22.0351 2.427
22.0516 2.564
22.0682 2.625
22.0847 2.433
22.1013 2.521
22.1178 2.301
22.1344 2.636
22.1509 2.351
22.1674 2.400
22.1840 2.395
22.2005 2.449
22.2171 2.378
22.2336 2.449
22.2502 2.559
22.2667 2.537
22.2833 2.515
22.2998 2.597
22.3164 2.219
22.3329 2.553
22.3494 2.340
22.3660 2.504
22.3825 2.499
22.3991 2.345
22.4156 2.482
22.4322 2.389
22.4487 2.301
22.4653 2.279
22.4818 2.537
22.4984 2.405
22.5149 2.345
22.5314 2.208
22.5480 2.323
22.5645 2.334
22.5811 2.537
22.5976 2.175
22.6142 2.614
22.6307 2.214
22.6473 2.455
22.6638 2.521
22.6804 2.345
22.6969 2.186
22.7134 2.532
22.7300 2.203
22.7465 2.499
22.7631 2.252
22.7796 2.488
22.7962 2.164
22.8127 2.356
22.8293 2.301
22.8458 2.411
22.8624 2.367
22.8789 2.203
22.8954 2.340
22.9120 2.345
22.9285 2.214
22.9451 2.258
22.9616 2.427
22.9782 2.279
22.9947 2.323
23.0113 2.329
23.0278 2.263
23.0444 2.208
23.0609 2.373
23.0774 2.301
23.0940 2.285
23.1105 2.444
23.1271 2.219
23.1436 2.389
23.1602 2.230
23.1767 2.422
23.1933 2.499
23.2098 2.460
23.2264 2.307
23.2429 2.307
23.2594 2.455
23.2760 2.312
23.2925 2.121
23.3091 2.384
23.3256 2.225
23.3422 2.170
23.3587 2.378
23.3753 2.132
23.3918 2.296
23.4084 2.236
23.4249 2.301
23.4414 2.351
23.4580 2.433
23.4745 2.247
23.4911 2.301
23.5076 2.416
23.5242 2.329
23.5407 2.438
23.5573 2.395
23.5738 2.455
23.5904 2.537
23.6069 2.438
23.6234 2.252
23.6400 2.477
23.6565 2.323
23.6731 2.373
23.6896 2.279
23.7062 2.247
23.7227 2.433
23.7393 2.208
23.7558 2.362
23.7724 2.367
23.7889 2.433
23.8054 2.258
23.8220 2.466
23.8385 2.504
23.8551 2.312
23.8716 2.532
23.8882 2.619
23.9047 2.471
23.9213 2.586
23.9378 2.395
23.9544 2.734
23.9709 2.422
23.9874 2.493
24.0040 2.416
24.0205 2.668
24.0371 2.521
24.0536 2.570
24.0702 2.729
24.0867 2.570
24.1033 2.723
24.1198 2.734
24.1364 2.762
24.1529 2.762
24.1694 2.668
24.1860 2.948
24.2025 2.586
24.2191 2.756
24.2356 2.663
24.2522 2.690
24.2687 2.608
24.2853 2.751
24.3018 2.816
24.3183 2.822
24.3349 2.871
24.3514 2.641
24.3680 2.921
24.3845 2.899
24.4011 2.570
24.4176 2.888
24.4342 2.811
24.4507 2.855
24.4673 2.844
24.4838 2.882
24.5003 2.800
24.5169 2.827
24.5334 2.877
24.5500 2.701
24.5665 2.827
24.5831 2.959
24.5996 2.784
24.6162 2.838
24.6327 2.701
24.6493 2.811
24.6658 2.942
24.6823 2.641
24.6989 2.707
24.7154 3.036
24.7320 2.663
24.7485 2.997
24.7651 3.090
24.7816 2.723
24.7982 2.959
24.8147 2.937
24.8313 3.019
24.8478 2.805
24.8643 2.800
24.8809 2.773
24.8974 2.926
24.9140 2.833
24.9305 3.041
24.9471 2.789
24.9636 2.948
24.9802 2.805
24.9967 2.762
25.0133 2.981
25.0298 2.871
25.0463 2.800
25.0629 2.932
25.0794 2.877
25.0960 2.877
25.1125 2.811
25.1291 3.014
25.1456 2.795
25.1622 3.195
25.1787 3.370
25.1953 3.332
25.2118 3.474
25.2283 3.249
25.2449 3.474
25.2614 3.282
25.2780 3.929
25.2945 3.649
25.3111 3.901
25.3276 3.978
25.3442 4.537
25.3607 4.729
25.3773 5.233
25.3938 5.978
25.4103 6.449
25.4269 7.430
25.4434 8.559
25.4600 9.874
25.4765 12.247
25.4931 14.932
25.5096 18.800
25.5262 23.364
25.5427 28.827
25.5593 33.786
25.5758 36.389
25.5923 36.422
25.6089 33.600
25.6254 29.923
25.6420 25.890
25.6585 21.332
25.6751 16.625
25.6916 12.170
25.7082 8.893
25.7247 6.740
25.7413 5.463
25.7578 4.718
25.7743 4.290
25.7909 3.879
25.8074 3.677
25.8240 3.479
25.8405 3.173
25.8571 3.025
25.8736 3.036
25.8902 2.811
25.9067 2.668
25.9233 3.008
25.9398 2.844
25.9563 2.658
25.9729 2.849
25.9894 2.964
26.0060 2.942
26.0225 2.751
26.0391 2.608
26.0556 2.570
26.0722 2.526
26.0887 2.400
26.1053 2.405
26.1218 2.658
26.1383 2.422
26.1549 2.405
26.1714 2.581
26.1880 2.625
26.2045 2.575
26.2211 2.455
26.2376 2.553
26.2542 2.575
26.2707 2.279
26.2873 2.395
26.3038 2.438
26.3203 2.493
26.3369 2.356
26.3534 2.482
26.3700 2.225
26.3865 2.395
26.4031 2.323
26.4196 2.192
26.4362 2.241
26.4527 2.263
26.4693 2.214
26.4858 2.340
26.5023 2.351
26.5189 2.132
26.5354 2.318
26.5520 2.274
26.5685 2.466
26.5851 2.252
26.6016 2.082
26.6182 2.433
26.6347 2.384
26.6513 2.225
26.6678 2.137
26.6843 2.252
26.7009 2.384
26.7174 2.318
26.7340 2.252
26.7505 2.334
26.7671 2.175
26.7836 2.044
26.8002 2.241
26.8167 2.236
26.8333 2.005
26.8498 2.049
26.8663 2.334
26.8829 2.126
26.8994 2.148
26.9160 2.312
26.9325 2.230
26.9491 2.329
26.9656 2.241
26.9822 2.082
26.9987 2.066
27.0152 2.186
27.0318 2.104
27.0483 2.115
27.0649 2.121
27.0814 2.110
27.0980 2.104
27.1145 2.077
27.1311 2.000
27.1476 2.055
27.1642 2.159
27.1807 1.825
27.1972 1.951
27.2138 2.192
27.2303 2.279
27.2469 2.016
27.2634 2.115
27.2800 2.192
27.2965 2.159
27.3131 2.000
27.3296 2.093
27.3462 2.104
27.3627 2.148
27.3792 2.088
27.3958 1.732
27.4123 2.110
27.4289 2.082
27.4454 2.137
27.4620 1.934
27.4785 1.907
27.4951 2.153
27.5116 2.192
27.5282 1.923
27.5447 2.263
27.5612 1.923
27.5778 2.038
27.5943 2.038
27.6109 2.033
27.6274 1.956
27.6440 1.863
27.6605 1.858
27.6771 1.852
27.6936 1.879
27.7102 1.984
27.7267 1.819
27.7432 1.973
27.7598 2.137
27.7763 1.825
27.7929 2.022
27.8094 1.962
27.8260 1.890
27.8425 1.929
27.8591 1.726
27.8756 2.000
27.8922 1.923
27.9087 1.978
27.9252 1.759
27.9418 2.049
27.9583 1.748
27.9749 2.055
27.9914 2.016
28.0080 1.907
28.0245 1.923
28.0411 1.863
28.0576 1.830
28.0742 1.841
28.0907 1.896
28.1072 1.940
28.1238 1.825
28.1403 1.808
28.1569 1.934
28.1734 1.956
28.1900 1.885
28.2065 1.797
28.2231 1.775
28.2396 1.858
28.2562 1.841
28.2727 1.841
28.2892 2.033
28.3058 1.786
28.3223 1.907
28.3389 1.830
28.3554 1.770
28.3720 1.715
28.3885 1.863
28.4051 1.901
28.4216 1.819
28.4382 1.753
28.4547 1.627
28.4712 1.627
28.4878 1.797
28.5043 1.671
28.5209 1.682
28.5374 1.901
28.5540 1.814
28.5705 1.693
28.5871 1.764
28.6036 1.814
28.6202 1.852
28.6367 1.775
28.6532 1.655
28.6698 1.841
28.6863 1.847
28.7029 1.578
28.7194 1.666
28.7360 1.666
28.7525 1.600
28.7691 1.775
28.7856 1.737
28.8022 1.644
28.8187 1.759
28.8352 1.732
28.8518 1.841
28.8683 1.682
28.8849 1.748
28.9014 1.781
28.9180 1.436
28.9345 1.693
28.9511 1.721
28.9676 1.753
28.9842 1.633
29.0007 1.710
29.0172 1.803
29.0338 1.633
29.0503 1.666
29.0669 1.660
29.0834 1.616
29.1000 1.732
29.1165 1.715
29.1331 1.633
29.1496 1.638
29.1662 1.732
29.1827 1.573
29.1992 1.732
29.2158 1.666
29.2323 1.633
29.2489 1.490
29.2654 1.726
29.2820 1.710
29.2985 1.485
29.3151 1.490
29.3316 1.644
29.3482 1.578
29.3647 1.556
29.3812 1.611
29.3978 1.666
29.4143 1.523
29.4309 1.567
29.4474 1.534
29.4640 1.551
29.4805 1.523
29.4971 1.644
29.5136 1.710
29.5302 1.732
29.5467 1.523
29.5632 1.534
29.5798 1.490
29.5963 1.419
29.6129 1.644
29.6294 1.589
29.6460 1.584
29.6625 1.622
29.6791 1.512
29.6956 1.847
29.7121 1.392
29.7287 1.408
29.7452 1.677
29.7618 1.430
29.7783 1.622
29.7949 1.458
29.8114 1.501
29.8280 1.584
29.8445 1.578
29.8611 1.468
29.8776 1.507
29.8941 1.660
29.9107 1.485
29.9272 1.584
29.9438 1.715
29.9603 1.485
29.9769 1.425
29.9934 1.556
30.0100 1.507
30.0265 1.326
30.0431 1.490
30.0596 1.551
30.0761 1.529
30.0927 1.622
30.1092 1.447
30.1258 1.682
30.1423 1.447
30.1589 1.474
30.1754 1.523
30.1920 1.490
30.2085 1.397
30.2251 1.447
30.2416 1.425
30.2581 1.337
30.2747 1.403
30.2912 1.496
30.3078 1.425
30.3243 1.414
30.3409 1.463
30.3574 1.293
30.3740 1.419
30.3905 1.485
30.4071 1.392
30.4236 1.425
30.4401 1.441
30.4567 1.337
30.4732 1.397
30.4898 1.447
30.5063 1.479
30.5229 1.321
30.5394 1.321
30.5560 1.490
30.5725 1.523
30.5891 1.584
30.6056 1.403
30.6221 1.441
30.6387 1.326
30.6552 1.414
30.6718 1.370
30.6883 1.249
30.7049 1.342
30.7214 1.414
30.7380 1.315
30.7545 1.485
30.7711 1.436
30.7876 1.348
30.8041 1.282
30.8207 1.403
30.8372 1.540
30.8538 1.353
30.8703 1.321
30.8869 1.452
30.9034 1.397
30.9200 1.255
30.9365 1.567
30.9531 1.468
30.9696 1.364
30.9861 1.479
31.0027 1.474
31.0192 1.326
31.0358 1.408
31.0523 1.249
31.0689 1.315
31.0854 1.496
31.1020 1.348
31.1185 1.326
31.1351 1.304
31.1516 1.397
31.1681 1.332
31.1847 1.310
31.2012 1.255
31.2178 1.381
31.2343 1.463
31.2509 1.282
31.2674 1.414
31.2840 1.485
31.3005 1.359
31.3171 1.271
31.3336 1.584
31.3501 1.501
31.3667 1.271
31.3832 1.468
31.3998 1.348
31.4163 1.359
31.4329 1.249
31.4494 1.452
31.4660 1.332
31.4825 1.348
31.4991 1.321
31.5156 1.216
31.5321 1.288
31.5487 1.255
31.5652 1.381
31.5818 1.425
31.5983 1.403
31.6149 1.523
31.6314 1.342
31.6480 1.288
31.6645 1.342
31.6811 1.425
31.6976 1.386
31.7141 1.392
31.7307 1.463
31.7472 1.337
31.7638 1.342
31.7803 1.282
31.7969 1.277
31.8134 1.129
31.8300 1.145
31.8465 1.101
31.8631 1.178
31.8796 1.123
31.8961 1.195
31.9127 1.123
31.9292 1.392
31.9458 1.255
31.9623 1.392
31.9789 1.436
31.9954 1.282
32.0120 1.266
32.0285 1.052
32.0451 1.342
32.0616 1.282
32.0781 1.151
32.0947 1.145
32.1112 1.184
32.1278 1.200
32.1443 1.315
32.1609 1.277
32.1774 1.244
32.1940 1.277
32.2105 1.205
32.2271 1.244
32.2436 1.107
32.2601 1.156
32.2767 1.195
32.2932 1.211
32.3098 1.266
32.3263 1.375
32.3429 1.293
32.3594 1.238
32.3760 1.277
32.3925 1.315
32.4091 1.162
32.4256 1.107
32.4421 1.195
32.4587 1.167
32.4752 1.123
32.4918 1.288
32.5083 1.216
32.5249 1.233
32.5414 1.222
32.5580 1.118
32.5745 1.238
32.5910 1.260
32.6076 1.107
32.6241 1.304
32.6407 1.299
32.6572 1.068
32.6738 1.233
32.6903 1.145
32.7069 1.227
32.7234 1.260
32.7400 1.162
32.7565 1.216
32.7730 1.178
32.7896 1.014
32.8061 1.178
32.8227 1.227
32.8392 1.479
32.8558 1.085
32.8723 1.107
32.8889 1.222
32.9054 1.112
32.9220 1.145
32.9385 1.101
32.9550 1.129
32.9716 1.205
32.9881 1.167
33.0047 1.063
33.0212 1.200
33.0378 1.140
33.0543 1.096
33.0709 1.321
33.0874 1.096
33.1040 1.058
33.1205 1.058
33.1370 1.216
33.1536 1.211
33.1701 1.189
33.1867 1.200
33.2032 1.266
33.2198 1.266
33.2363 1.085
33.2529 1.184
33.2694 1.195
33.2860 1.200
33.3025 1.348
33.3190 1.025
33.3356 1.047
33.3521 1.101
33.3687 1.134
33.3852 1.058
33.4018 1.238
33.4183 1.134
33.4349 1.140
33.4514 1.101
33.4680 1.118
33.4845 1.167
33.5010 1.030
33.5176 1.068
33.5341 1.063
33.5507 1.211
33.5672 1.227
33.5838 1.151
33.6003 1.123
33.6169 1.151
33.6334 1.173
33.6500 1.140
33.6665 1.189
33.6830 1.090
33.6996 1.112
33.7161 1.014
33.7327 1.052
33.7492 1.205
33.7658 1.134
33.7823 1.145
33.7989 1.282
33.8154 1.036
33.8320 1.216
33.8485 1.090
33.8650 1.310
33.8816 1.386
33.8981 1.277
33.9147 1.277
33.9312 1.200
33.9478 1.310
33.9643 1.260
33.9809 1.227
33.9974 1.321
34.0140 1.310
34.0305 1.255
34.0470 1.266
34.0636 1.381
34.0801 1.447
34.0967 1.370
34.1132 1.271
34.1298 1.271
34.1463 1.288
34.1629 1.288
34.1794 1.288
34.1960 1.244
34.2125 1.370
34.2290 1.244
34.2456 1.299
34.2621 1.288
34.2787 1.227
34.2952 1.364
34.3118 1.430
34.3283 1.293
34.3449 1.205
34.3614 1.359
34.3780 1.447
34.3945 1.337
34.4110 1.485
34.4276 1.277
34.4441 1.364
34.4607 1.233
34.4772 1.523
34.4938 1.474
34.5103 1.348
34.5269 1.529
34.5434 1.414
34.5600 1.589
34.5765 1.523
34.5930 1.551
34.6096 1.595
34.6261 1.792
34.6427 1.616
34.6592 1.622
34.6758 1.627
34.6923 1.573
34.7089 2.000
34.7254 1.918
34.7420 1.847
34.7585 1.934
34.7750 2.241
34.7916 2.367
34.8081 2.751
34.8247 2.427
34.8412 2.822
34.8578 2.986
34.8743 3.271
34.8909 4.077
34.9074 4.258
34.9240 4.608
34.9405 5.123
34.9570 6.263
34.9736 7.299
34.9901 8.225
35.0067 10.115
35.0232 12.384
35.0398 14.482
35.0563 17.803
35.0729 21.370
35.0894 27.310
35.1060 33.041
35.1225 40.219
35.1390 46.564
35.1556 48.477
35.1721 45.567
35.1887 40.953
35.2052 34.477
35.2218 31.567
35.2383 28.351
35.2549 24.866
35.2714 19.956
35.2879 15.589
35.3045 10.849
35.3210 7.879
35.3376 5.666
35.3541 4.422
35.3707 3.989
35.3872 3.337
35.4038 3.101
35.4203 2.619
35.4369 2.285
35.4534 2.225
35.4699 2.175
35.4865 1.907
35.5030 1.901
35.5196 1.825
35.5361 1.737
35.5527 1.682
35.5692 1.534
35.5858 1.699
35.6023 1.584
35.6189 1.562
35.6354 1.523
35.6519 1.567
35.6685 1.507
35.6850 1.507
35.7016 1.397
35.7181 1.375
35.7347 1.512
35.7512 1.518
35.7678 1.326
35.7843 1.441
35.8009 1.397
35.8174 1.244
35.8339 1.145
35.8505 1.107
35.8670 1.326
35.8836 1.227
35.9001 1.211
35.9167 1.140
35.9332 1.260
35.9498 1.315
35.9663 1.184
35.9829 1.364
35.9994 1.332
36.0159 1.211
36.0325 1.249
36.0490 1.200
36.0656 1.123
36.0821 1.151
36.0987 1.238
36.1152 1.151
36.1318 1.068
36.1483 1.200
36.1649 1.079
36.1814 1.134
36.1979 1.211
36.2145 1.266
36.2310 1.025
36.2476 1.205
36.2641 1.233
36.2807 1.260
36.2972 1.085
36.3138 1.222
36.3303 1.129
36.3469 1.090
36.3634 1.184
36.3799 1.200
36.3965 1.238
36.4130 1.123
36.4296 1.222
36.4461 1.255
36.4627 1.063
36.4792 1.348
36.4958 1.277
36.5123 1.304
36.5289 0.997
36.5454 1.101
36.5619 1.288
36.5785 1.195
36.5950 1.112
36.6116 1.227
36.6281 1.085
36.6447 1.151
36.6612 1.123
36.6778 1.140
36.6943 1.068
36.7109 1.211
36.7274 0.986
36.7439 1.162
36.7605 1.025
36.7770 1.178
36.7936 1.255
36.8101 1.200
36.8267 1.079
36.8432 1.079
36.8598 1.107
36.8763 1.238
36.8929 1.096
36.9094 1.195
36.9259 1.189
36.9425 1.145
36.9590 1.145
36.9756 1.019
36.9921 1.162
37.0087 1.211
37.0252 1.205
37.0418 1.238
37.0583 1.173
37.0749 1.101
37.0914 1.189
37.1079 1.211
37.1245 1.282
37.1410 1.211
37.1576 1.227
37.1741 1.184
37.1907 1.173
37.2072 1.156
37.2238 1.112
37.2403 1.145
37.2569 1.271
37.2734 1.304
37.2899 1.173
37.3065 1.556
37.3230 1.386
37.3396 1.238
37.3561 1.277
37.3727 1.616
37.3892 1.430
37.4058 1.595
37.4223 1.474
37.4389 1.786
37.4554 1.808
37.4719 1.885
37.4885 1.956
37.5050 2.159
37.5216 2.066
37.5381 2.499
37.5547 2.805
37.5712 3.074
37.5878 3.342
37.6043 3.775
37.6209 4.389
37.6374 4.838
37.6539 5.951
37.6705 6.532
37.6870 8.427
37.7036 9.600
37.7201 12.241
37.7367 14.658
37.7532 17.726
37.7698 18.663
37.7863 19.156
37.8029 17.605
37.8194 15.847
37.8359 13.468
37.8525 12.225
37.8690 12.033
37.8856 10.608
37.9021 8.767
37.9187 6.696
37.9352 4.871
37.9518 3.764
37.9683 2.855
37.9848 2.405
38.0014 1.890
38.0179 2.005
38.0345 1.808
38.0510 1.638
38.0676 1.501
38.0841 1.507
38.1007 1.397
38.1172 1.386
38.1338 1.222
38.1503 1.326
38.1668 1.271
38.1834 1.249
38.1999 1.288
38.2165 1.151
38.2330 1.151
38.2496 1.266
38.2661 1.195
38.2827 1.266
38.2992 1.167
38.3158 1.025
38.3323 1.227
38.3488 1.107
38.3654 1.107
38.3819 1.014
38.3985 1.068
38.4150 1.200
38.4316 0.964
38.4481 1.145
38.4647 0.997
38.4812 0.926
38.4978 1.063
38.5143 1.058
38.5308 0.833
38.5474 0.904
38.5639 0.964
38.5805 1.063
38.5970 1.085
38.6136 0.948
38.6301 1.014
38.6467 0.981
38.6632 1.107
38.6798 1.151
38.6963 1.030
38.7128 0.921
38.7294 1.014
38.7459 0.915
38.7625 0.915
38.7790 0.910
38.7956 0.926
38.8121 0.942
38.8287 1.063
38.8452 1.052
38.8618 0.910
38.8783 1.068
38.8948 1.030
38.9114 1.134
38.9279 1.189
38.9445 1.195
38.9610 1.074
38.9776 1.052
38.9941 0.932
39.0107 1.079
39.0272 1.019
39.0438 1.090
39.0603 0.937
39.0768 1.058
39.0934 1.014
39.1099 0.893
39.1265 0.899
39.1430 1.008
39.1596 0.932
39.1761 0.997
39.1927 0.932
39.2092 0.948
39.2258 1.079
39.2423 0.997
39.2588 0.992
39.2754 0.937
39.2919 0.877
39.3085 0.910
39.3250 0.937
39.3416 0.992
39.3581 0.992
39.3747 1.008
39.3912 0.964
39.4078 0.975
39.4243 0.877
39.4408 0.910
39.4574 0.953
39.4739 0.811
39.4905 0.866
39.5070 0.816
39.5236 0.926
39.5401 0.910
39.5567 0.910
39.5732 0.877
39.5898 0.805
39.6063 0.805
39.6228 0.778
39.6394 0.899
39.6559 0.860
39.6725 0.970
39.6890 0.838
39.7056 0.888
39.7221 0.899
39.7387 0.822
39.7552 0.855
39.7718 0.860
39.7883 0.778
39.8048 0.866
39.8214 0.767
39.8379 0.904
39.8545 0.899
39.8710 0.844
39.8876 0.866
39.9041 0.833
39.9207 0.877
39.9372 0.767
39.9538 0.816
39.9703 0.904
39.9868 0.948
40.0034 0.773
40.0199 0.838
40.0365 0.844
40.0530 0.948
40.0696 0.816
40.0861 0.860
40.1027 0.915
40.1192 0.789
40.1358 0.915
40.1523 0.877
40.1688 1.030
40.1854 0.893
40.2019 0.800
40.2185 0.937
40.2350 0.910
40.2516 0.921
40.2681 0.827
40.2847 0.882
40.3012 0.833
40.3178 0.877
40.3343 0.838
40.3508 0.756
40.3674 0.734
40.3839 0.816
40.4005 0.855
40.4170 0.816
40.4336 0.866
40.4501 0.756
40.4667 0.827
40.4832 0.800
40.4998 0.926
40.5163 0.723
40.5328 0.932
40.5494 0.882
40.5659 0.866
40.5825 0.833
40.5990 0.877
40.6156 0.816
40.6321 0.855
40.6487 0.844
40.6652 0.822
40.6818 0.877
40.6983 0.718
40.7148 0.767
40.7314 0.849
40.7479 0.871
40.7645 0.877
40.7810 0.729
40.7976 0.762
40.8141 0.795
40.8307 0.811
40.8472 0.910
40.8637 0.904
40.8803 0.882
40.8968 0.932
40.9134 0.800
40.9299 0.800
40.9465 0.877
40.9630 0.942
40.9796 0.882
40.9961 0.762
41.0127 0.926
41.0292 0.805
41.0457 0.844
41.0623 0.866
41.0788 0.838
41.0954 0.882
41.1119 0.915
41.1285 0.877
41.1450 0.882
41.1616 0.926
41.1781 0.833
41.1947 0.921
41.2112 0.734
41.2277 0.981
41.2443 0.866
41.2608 0.899
41.2774 0.718
41.2939 0.767
41.3105 0.811
41.3270 0.838
41.3436 0.838
41.3601 0.805
41.3767 0.712
41.3932 0.844
41.4097 0.849
41.4263 0.712
41.4428 0.849
41.4594 0.844
41.4759 0.860
41.4925 0.970
41.5090 0.822
41.5256 0.888
41.5421 0.877
41.5587 0.948
41.5752 1.003
41.5917 1.052
41.6083 1.063
41.6248 1.058
41.6414 1.079
41.6579 1.129
41.6745 1.277
41.6910 1.304
41.7076 1.162
41.7241 1.227
41.7407 1.079
41.7572 1.167
41.7737 1.003
41.7903 1.112
41.8068 1.003
41.8234 1.123
41.8399 1.173
41.8565 1.096
41.8730 1.030
41.8896 1.025
41.9061 0.942
41.9227 1.008
41.9392 0.975
41.9557 0.844
41.9723 0.937
41.9888 1.058
42.0054 0.959
42.0219 0.882
42.0385 0.970
42.0550 1.052
42.0716 0.992
42.0881 0.992
42.1047 0.964
42.1212 0.942
42.1377 1.101
42.1543 0.888
42.1708 0.964
42.1874 0.986
42.2039 0.997
42.2205 0.800
42.2370 0.932
42.2536 1.096
42.2701 0.893
42.2867 1.014
42.3032 0.986
42.3197 0.910
42.3363 1.216
42.3528 0.997
42.3694 0.942
42.3859 0.926
42.4025 0.893
42.4190 1.047
42.4356 1.063
42.4521 1.041
42.4687 1.074
42.4852 1.014
42.5017 0.953
42.5183 1.085
42.5348 1.019
42.5514 1.074
42.5679 1.036
42.5845 1.025
42.6010 1.036
42.6176 1.030
42.6341 1.090
42.6507 1.156
42.6672 1.019
42.6837 1.068
42.7003 1.238
42.7168 1.107
42.7334 1.052
42.7499 1.244
42.7665 1.271
42.7830 1.255
42.7996 1.332
42.8161 1.447
42.8327 1.293
42.8492 1.501
42.8657 1.288
42.8823 1.381
42.8988 1.578
42.9154 1.732
42.9319 1.841
42.9485 1.923
42.9650 2.033
42.9816 2.038
42.9981 2.477
43.0147 2.619
43.0312 2.795
43.0477 3.134
43.0643 3.589
43.0808 4.137
43.0974 4.499
43.1139 4.948
43.1305 5.573
43.1470 6.608
43.1636 7.737
43.1801 8.981
43.1967 10.049
43.2132 12.066
43.2297 14.586
43.2463 16.882
43.2628 20.219
43.2794 24.570
43.2959 30.729
43.3125 36.466
43.3290 42.192
43.3456 47.671
43.3621 47.216
43.3787 43.425
43.3952 38.274
43.4117 31.819
43.4283 28.186
43.4448 27.118
43.4614 25.885
43.4779 24.099
43.4945 20.712
43.5110 15.490
43.5276 11.507
43.5441 7.868
43.5606 5.781
43.5772 4.734
43.5937 3.819
43.6103 3.162
43.6268 2.510
43.6434 2.532
43.6599 2.263
43.6765 2.274
43.6930 1.967
43.7096 1.710
43.7261 1.627
43.7426 1.441
43.7592 1.655
43.7757 1.551
43.7923 1.414
43.8088 1.496
43.8254 1.101
43.8419 1.419
43.8585 1.359
43.8750 1.249
43.8916 1.227
43.9081 1.101
43.9246 1.200
43.9412 1.173
43.9577 1.145
43.9743 1.036
43.9908 1.167
44.0074 1.112
44.0239 1.019
44.0405 1.063
44.0570 0.964
44.0736 0.921
44.0901 1.019
44.1066 1.036
44.1232 1.079
44.1397 0.910
44.1563 0.964
44.1728 0.926
44.1894 0.800
44.2059 0.915
44.2225 0.893
44.2390 0.789
44.2556 0.860
44.2721 0.948
44.2886 0.805
44.3052 0.904
44.3217 0.970
44.3383 0.827
44.3548 0.953
44.3714 0.844
44.3879 0.888
44.4045 0.959
44.4210 0.784
44.4376 0.723
44.4541 0.811
44.4706 0.860
44.4872 0.860
44.5037 0.926
44.5203 0.838
44.5368 0.986
44.5534 0.904
44.5699 0.712
44.5865 0.827
44.6030 0.877
44.6196 0.805
44.6361 0.789
44.6526 0.822
44.6692 0.860
44.6857 0.811
44.7023 0.767
44.7188 0.948
44.7354 0.767
44.7519 0.855
44.7685 0.893
44.7850 0.789
44.8016 0.844
44.8181 0.805
44.8346 0.822
44.8512 0.882
44.8677 0.959
44.8843 0.778
44.9008 0.805
44.9174 0.751
44.9339 0.871
44.9505 0.690
44.9670 0.822
44.9836 0.745
45.0001 0.707
45.0166 0.778
45.0332 0.805
45.0497 0.882
45.0663 0.893
45.0828 0.723
45.0994 0.756
45.1159 0.712
45.1325 0.789
45.1490 0.811
45.1656 0.690
45.1821 0.740
45.1986 0.701
45.2152 0.860
45.2317 0.833
45.2483 0.784
45.2648 0.805
45.2814 0.816
45.2979 0.871
45.3145 0.838
45.3310 0.729
45.3476 0.723
45.3641 0.756
45.3806 0.795
45.3972 0.756
45.4137 0.773
45.4303 0.762
45.4468 0.866
45.4634 0.751
45.4799 0.784
45.4965 0.762
45.5130 0.718
45.5296 0.740
45.5461 0.773
45.5626 0.701
45.5792 0.696
45.5957 0.668
45.6123 0.816
45.6288 0.745
45.6454 0.696
45.6619 0.674
45.6785 0.685
45.6950 0.784
45.7116 0.778
45.7281 0.707
45.7446 0.696
45.7612 0.663
45.7777 0.674
45.7943 0.701
45.8108 0.811
45.8274 0.800
45.8439 0.685
45.8605 0.729
45.8770 0.690
45.8936 0.756
45.9101 0.658
45.9266 0.707
45.9432 0.778
45.9597 0.849
45.9763 0.800
45.9928 0.860
46.0094 0.712
46.0259 0.860
46.0425 0.690
46.0590 0.855
46.0756 0.871
46.0921 0.937
46.1086 1.003
46.1252 1.140
46.1417 1.123
46.1583 1.271
46.1748 1.189
46.1914 1.260
46.2079 1.211
46.2245 1.041
46.2410 1.101
46.2575 0.975
46.2741 0.997
46.2906 1.090
46.3072 0.882
46.3237 0.915
46.3403 0.822
46.3568 0.964
46.3734 0.811
46.3899 0.745
46.4065 0.696
46.4230 0.816
46.4395 0.734
46.4561 0.784
46.4726 0.707
46.4892 0.658
46.5057 0.718
46.5223 0.696
46.5388 0.696
46.5554 0.641
46.5719 0.723
46.5885 0.795
46.6050 0.756
46.6215 0.795
46.6381 0.658
46.6546 0.822
46.6712 0.855
46.6877 1.173
46.7043 1.288
46.7208 1.370
46.7374 1.222
46.7539 0.937
46.7705 0.745
46.7870 0.586
46.8035 0.597
46.8201 0.608
46.8366 0.707
46.8532 0.564
46.8697 0.690
46.8863 0.751
46.9028 0.625
46.9194 0.696
46.9359 0.784
46.9525 0.712
46.9690 0.668
46.9855 0.575
47.0021 0.668
47.0186 0.679
47.0352 0.668
47.0517 0.773
47.0683 0.767
47.0848 0.658
47.1014 0.745
47.1179 0.729
47.1345 0.723
47.1510 0.690
47.1675 0.718
47.1841 0.811
47.2006 0.729
47.2172 0.805
47.2337 0.723
47.2503 0.647
47.2668 0.723
47.2834 0.658
47.2999 0.712
47.3165 0.674
47.3330 0.570
47.3495 0.586
47.3661 0.685
47.3826 0.553
47.3992 0.690
47.4157 0.658
47.4323 0.641
47.4488 0.636
47.4654 0.756
47.4819 0.701
47.4985 0.641
47.5150 0.674
47.5315 0.608
47.5481 0.647
47.5646 0.597
47.5812 0.570
47.5977 0.663
47.6143 0.608
47.6308 0.696
47.6474 0.652
47.6639 0.647
47.6805 0.636
47.6970 0.668
47.7135 0.575
47.7301 0.630
47.7466 0.575
47.7632 0.608
47.7797 0.679
47.7963 0.575
47.8128 0.636
47.8294 0.800
47.8459 0.658
47.8625 0.630
47.8790 0.773
47.8955 0.734
47.9121 0.515
47.9286 0.636
47.9452 0.658
47.9617 0.630
47.9783 0.614
47.9948 0.641
48.0114 0.663
48.0279 0.658
48.0445 0.701
48.0610 0.707
48.0775 0.597
48.0941 0.592
48.1106 0.608
48.1272 0.586
48.1437 0.548
48.1603 0.564
48.1768 0.647
48.1934 0.668
48.2099 0.789
48.2265 0.515
48.2430 0.614
48.2595 0.647
48.2761 0.679
48.2926 0.575
48.3092 0.603
48.3257 0.597
48.3423 0.592
48.3588 0.641
48.3754 0.597
48.3919 0.663
48.4085 0.559
48.4250 0.614
48.4415 0.608
48.4581 0.756
48.4746 0.570
48.4912 0.652
48.5077 0.630
48.5243 0.658
48.5408 0.619
48.5574 0.608
48.5739 0.619
48.5905 0.603
48.6070 0.575
48.6235 0.603
48.6401 0.625
48.6566 0.696
48.6732 0.477
48.6897 0.564
48.7063 0.570
48.7228 0.636
48.7394 0.641
48.7559 0.570
48.7725 0.542
48.7890 0.663
48.8055 0.586
48.8221 0.553
48.8386 0.679
48.8552 0.729
48.8717 0.537
48.8883 0.510
48.9048 0.630
48.9214 0.625
48.9379 0.663
48.9545 0.504
48.9710 0.641
48.9875 0.586
49.0041 0.696
49.0206 0.597
49.0372 0.636
49.0537 0.603
49.0703 0.647
49.0868 0.542
49.1034 0.603
49.1199 0.597
49.1364 0.542
49.1530 0.510
49.1695 0.581
49.1861 0.723
49.2026 0.438
49.2192 0.619
49.2357 0.603
49.2523 0.619
49.2688 0.614
49.2854 0.537
49.3019 0.630
49.3184 0.570
49.3350 0.614
49.3515 0.581
49.3681 0.619
49.3846 0.575
49.4012 0.553
49.4177 0.515
49.4343 0.581
49.4508 0.564
49.4674 0.701
49.4839 0.603
49.5004 0.532
49.5170 0.499
49.5335 0.575
49.5501 0.597
49.5666 0.559
49.5832 0.570
49.5997 0.526
49.6163 0.537
49.6328 0.564
49.6494 0.592
49.6659 0.488
49.6824 0.641
49.6990 0.608
49.7155 0.619
49.7321 0.564
49.7486 0.734
49.7652 0.581
49.7817 0.614
49.7983 0.685
49.8148 0.690
49.8314 0.537
49.8479 0.570
49.8644 0.526
49.8810 0.603
49.8975 0.526
49.9141 0.548
49.9306 0.510
49.9472 0.641
49.9637 0.553
49.9803 0.526
49.9968 0.652
50.0134 0.597
50.0299 0.679
50.0464 0.575
50.0630 0.636
50.0795 0.575
50.0961 0.575
50.1126 0.641
50.1292 0.542
50.1457 0.526
50.1623 0.614
50.1788 0.619
50.1954 0.603
50.2119 0.532
50.2284 0.510
50.2450 0.542
50.2615 0.504
50.2781 0.630
50.2946 0.510
50.3112 0.679
50.3277 0.449
50.3443 0.493
50.3608 0.499
50.3774 0.553
50.3939 0.526
50.4104 0.625
50.4270 0.614
50.4435 0.668
50.4601 0.608
50.4766 0.767
50.4932 0.515
50.5097 0.647
50.5263 0.658
50.5428 0.537
50.5594 0.564
50.5759 0.636
50.5924 0.592
50.6090 0.685
50.6255 0.553
50.6421 0.548
50.6586 0.707
50.6752 0.734
50.6917 0.636
50.7083 0.658
50.7248 0.581
50.7414 0.521
50.7579 0.647
50.7744 0.641
50.7910 0.570
50.8075 0.636
50.8241 0.608
50.8406 0.690
50.8572 0.559
50.8737 0.619
50.8903 0.608
50.9068 0.586
50.9234 0.668
50.9399 0.630
50.9564 0.767
50.9730 0.542
50.9895 0.668
51.0061 0.586
51.0226 0.745
51.0392 0.707
51.0557 0.597
51.0723 0.537
51.0888 0.751
51.1054 0.663
51.1219 0.636
51.1384 0.679
51.1550 0.603
51.1715 0.696
51.1881 0.553
51.2046 0.575
51.2212 0.668
51.2377 0.553
51.2543 0.663
51.2708 0.679
51.2874 0.685
51.3039 0.778
51.3204 0.592
51.3370 0.625
51.3535 0.718
51.3701 0.663
51.3866 0.773
51.4032 0.701
51.4197 0.663
51.4363 0.679
51.4528 0.723
51.4694 0.723
51.4859 0.723
51.5024 0.762
51.5190 0.718
51.5355 0.696
51.5521 0.679
51.5686 0.745
51.5852 0.784
51.6017 0.690
51.6183 0.696
51.6348 0.712
51.6514 0.668
51.6679 0.630
51.6844 0.734
51.7010 0.690
51.7175 0.707
51.7341 0.707
51.7506 0.685
51.7672 0.756
51.7837 0.685
51.8003 0.822
51.8168 0.751
51.8333 0.712
51.8499 0.586
51.8664 0.718
51.8830 0.899
51.8995 0.904
51.9161 0.767
51.9326 0.751
51.9492 0.778
51.9657 0.893
51.9823 0.811
51.9988 0.723
52.0153 0.795
52.0319 0.888
52.0484 0.893
52.0650 0.877
52.0815 0.904
52.0981 0.948
52.1146 1.244
52.1312 1.260
52.1477 1.195
52.1643 1.200
52.1808 1.436
52.1973 1.249
52.2139 1.463
52.2304 1.523
52.2470 1.841
52.2635 1.885
52.2801 2.033
52.2966 2.570
52.3132 2.729
52.3297 3.112
52.3463 3.534
52.3628 3.896
52.3793 4.241
52.3959 5.397
52.4124 5.934
52.4290 7.244
52.4455 8.477
52.4621 10.093
52.4786 11.370
52.4952 13.463
52.5117 16.082
52.5283 18.252
52.5448 19.545
52.5613 19.611
52.5779 17.688
52.5944 15.726
52.6110 12.932
52.6275 11.227
52.6441 10.641
52.6606 10.564
52.6772 11.079
52.6937 10.603
52.7103 9.507
52.7268 7.781
52.7433 6.164
52.7599 4.499
52.7764 3.605
52.7930 2.625
52.8095 2.290
52.8261 1.868
52.8426 1.781
52.8592 1.595
52.8757 1.277
52.8923 1.134
52.9088 1.008
52.9253 1.205
52.9419 1.162
52.9584 0.970
52.9750 0.921
52.9915 0.866
53.0081 0.860
53.0246 0.893
53.0412 0.921
53.0577 0.773
53.0743 0.745
53.0908 0.751
53.1073 0.625
53.1239 0.751
53.1404 0.751
53.1570 0.679
53.1735 0.729
53.1901 0.833
53.2066 0.658
53.2232 0.723
53.2397 0.740
53.2563 0.592
53.2728 0.751
53.2893 0.740
53.3059 0.707
53.3224 0.712
53.3390 0.734
53.3555 0.723
53.3721 0.795
53.3886 0.707
53.4052 0.707
53.4217 0.707
53.4383 0.778
53.4548 0.696
53.4713 0.767
53.4879 0.734
53.5044 0.597
53.5210 0.526
53.5375 0.570
53.5541 0.597
53.5706 0.597
53.5872 0.690
53.6037 0.559
53.6203 0.553
53.6368 0.608
53.6533 0.592
53.6699 0.641
53.6864 0.542
53.7030 0.373
53.7195 0.504
53.7361 0.548
53.7526 0.701
53.7692 0.564
53.7857 0.542
53.8023 0.548
53.8188 0.581
53.8353 0.614
53.8519 0.592
53.8684 0.521
53.8850 0.537
53.9015 0.553
53.9181 0.647
53.9346 0.559
53.9512 0.581
53.9677 0.515
53.9843 0.663
54.0008 0.652
54.0173 0.548
54.0339 0.510
54.0504 0.586
54.0670 0.521
54.0835 0.564
54.1001 0.564
54.1166 0.674
54.1332 0.592
54.1497 0.482
54.1663 0.548
54.1828 0.460
54.1993 0.597
54.2159 0.570
54.2324 0.619
54.2490 0.614
54.2655 0.608
54.2821 0.548
54.2986 0.619
54.3152 0.553
54.3317 0.532
54.3483 0.482
54.3648 0.625
54.3813 0.504
54.3979 0.521
54.4144 0.619
54.4310 0.663
54.4475 0.515
54.4641 0.652
54.4806 0.542
54.4972 0.614
54.5137 0.592
54.5302 0.608
54.5468 0.537
54.5633 0.460
54.5799 0.455
54.5964 0.630
54.6130 0.504
54.6295 0.493
54.6461 0.488
54.6626 0.499
54.6792 0.521
54.6957 0.477
54.7122 0.482
54.7288 0.471
54.7453 0.614
54.7619 0.477
54.7784 0.559
54.7950 0.521
54.8115 0.532
54.8281 0.510
54.8446 0.515
54.8612 0.537
54.8777 0.340
54.8942 0.488
54.9108 0.542
54.9273 0.444
54.9439 0.608
54.9604 0.625
54.9770 0.570
54.9935 0.614
55.0101 0.532
55.0266 0.515
55.0432 0.482
55.0597 0.570
55.0762 0.427
55.0928 0.630
55.1093 0.488
55.1259 0.515
55.1424 0.575
55.1590 0.586
55.1755 0.460
55.1921 0.521
55.2086 0.521
55.2252 0.614
55.2417 0.575
55.2582 0.477
55.2748 0.477
55.2913 0.641
55.3079 0.690
55.3244 0.581
55.3410 0.641
55.3575 0.553
55.3741 0.625
55.3906 0.658
55.4072 0.521
55.4237 0.701
55.4402 0.630
55.4568 0.581
55.4733 0.581
55.4899 0.707
55.5064 0.811
55.5230 0.668
55.5395 0.630
55.5561 0.674
55.5726 0.674
55.5892 0.668
55.6057 0.652
55.6222 0.482
55.6388 0.647
55.6553 0.723
55.6719 0.668
55.6884 0.663
55.7050 0.625
55.7215 0.668
55.7381 0.597
55.7546 0.679
55.7712 0.674
55.7877 0.581
55.8042 0.499
55.8208 0.603
55.8373 0.658
55.8539 0.784
55.8704 0.575
55.8870 0.614
55.9035 0.641
55.9201 0.674
55.9366 0.608
55.9532 0.647
55.9697 0.723
55.9862 0.729
56.0028 0.718
56.0193 0.515
56.0359 0.586
56.0524 0.679
56.0690 0.663
56.0855 0.581
56.1021 0.658
56.1186 0.564
56.1352 0.685
56.1517 0.701
56.1682 0.652
56.1848 0.745
56.2013 0.668
56.2179 0.658
56.2344 0.707
56.2510 0.679
56.2675 0.729
56.2841 0.647
56.3006 0.597
56.3172 0.515
56.3337 0.701
56.3502 0.701
56.3668 0.570
56.3833 0.773
56.3999 0.614
56.4164 0.712
56.4330 0.564
56.4495 0.740
56.4661 0.608
56.4826 0.707
56.4992 0.795
56.5157 0.636
56.5322 0.822
56.5488 0.630
56.5653 0.641
56.5819 0.751
56.5984 0.756
56.6150 0.690
56.6315 0.849
56.6481 0.877
56.6646 0.690
56.6812 0.756
56.6977 0.959
56.7142 0.800
56.7308 0.734
56.7473 0.805
56.7639 0.762
56.7804 0.784
56.7970 0.866
56.8135 0.745
56.8301 0.844
56.8466 0.877
56.8632 0.871
56.8797 1.003
56.8962 0.953
56.9128 1.090
56.9293 0.992
56.9459 1.041
56.9624 1.058
56.9790 1.156
56.9955 1.244
57.0121 1.485
57.0286 1.364
57.0452 1.408
57.0617 1.649
57.0782 1.781
57.0948 1.847
57.1113 2.055
57.1279 2.340
57.1444 2.285
57.1610 2.625
57.1775 3.014
57.1941 3.545
57.2106 3.803
57.2272 4.285
57.2437 4.526
57.2602 5.019
57.2768 5.721
57.2933 6.499
57.3099 7.507
57.3264 8.712
57.3430 10.181
57.3595 11.381
57.3761 12.926
57.3926 15.786
57.4091 18.241
57.4257 23.014
57.4422 26.844
57.4588 30.647
57.4753 35.342
57.4919 38.811
57.5084 39.556
57.5250 35.742
57.5415 30.729
57.5581 25.184
57.5746 21.578
57.5911 19.090
57.6077 18.685
57.6242 19.364
57.6408 20.499
57.6573 20.301
57.6739 18.203
57.6904 15.896
57.7070 11.962
57.7235 8.784
57.7401 6.674
57.7566 5.173
57.7731 3.956
57.7897 3.255
57.8062 2.526
57.8228 2.384
57.8393 2.066
57.8559 2.027
57.8724 1.792
57.8890 1.479
57.9055 1.501
57.9221 1.605
57.9386 1.293
57.9551 1.288
57.9717 1.145
57.9882 1.052
58.0048 1.107
58.0213 1.036
58.0379 1.030
58.0544 0.932
58.0710 0.888
58.0875 0.888
58.1041 0.833
58.1206 0.926
58.1371 0.833
58.1537 0.805
58.1702 0.866
58.1868 0.816
58.2033 0.849
58.2199 0.729
58.2364 0.756
58.2530 0.860
58.2695 0.805
58.2861 0.707
58.3026 0.745
58.3191 0.696
58.3357 0.767
58.3522 0.663
58.3688 0.614
58.3853 0.597
58.4019 0.679
58.4184 0.685
58.4350 0.636
58.4515 0.630
58.4681 0.718
58.4846 0.597
58.5011 0.658
58.5177 0.652
58.5342 0.718
58.5508 0.636
58.5673 0.586
58.5839 0.625
58.6004 0.603
58.6170 0.597
58.6335 0.614
58.6501 0.592
58.6666 0.548
58.6831 0.625
58.6997 0.647
58.7162 0.625
58.7328 0.570
58.7493 0.625
58.7659 0.674
58.7824 0.603
58.7990 0.570
58.8155 0.553
58.8321 0.559
58.8486 0.718
58.8651 0.608
58.8817 0.636
58.8982 0.608
58.9148 0.586
58.9313 0.515
58.9479 0.559
58.9644 0.679
58.9810 0.504
58.9975 0.603
59.0141 0.526
59.0306 0.701
59.0471 0.570
59.0637 0.542
59.0802 0.581
59.0968 0.488
59.1133 0.586
59.1299 0.559
59.1464 0.603
59.1630 0.570
59.1795 0.658
59.1961 0.537
59.2126 0.488
59.2291 0.548
59.2457 0.575
59.2622 0.575
59.2788 0.537
59.2953 0.614
59.3119 0.592
59.3284 0.663
59.3450 0.679
59.3615 0.614
59.3781 0.592
59.3946 0.745
59.4111 0.674
59.4277 0.608
59.4442 0.740
59.4608 0.696
59.4773 0.630
59.4939 0.679
59.5104 0.647
59.5270 0.915
59.5435 0.690
59.5601 0.690
59.5766 0.811
59.5931 0.838
59.6097 0.877
59.6262 0.827
59.6428 0.948
59.6593 0.992
59.6759 1.288
59.6924 1.315
59.7090 1.337
59.7255 1.562
59.7421 1.485
59.7586 1.458
59.7751 1.200
59.7917 1.233
59.8082 1.063
59.8248 1.058
59.8413 0.915
59.8579 0.975
59.8744 0.915
59.8910 0.964
59.9075 1.036
59.9241 0.981
59.9406 0.926
59.9571 0.816
59.9737 0.668
59.9902 0.751
60.0068 0.553
60.0233 0.652
60.0399 0.608
60.0564 0.630
60.0730 0.482
60.0895 0.548
60.1060 0.559
60.1226 0.603
60.1391 0.636
60.1557 0.532
60.1722 0.493
60.1888 0.647
60.2053 0.455
60.2219 0.696
60.2384 0.499
60.2550 0.570
60.2715 0.526
60.2880 0.625
60.3046 0.641
60.3211 0.548
60.3377 0.575
60.3542 0.532
60.3708 0.608
60.3873 0.608
60.4039 0.482
60.4204 0.405
60.4370 0.641
60.4535 0.581
60.4700 0.499
60.4866 0.499
60.5031 0.510
60.5197 0.471
60.5362 0.493
60.5528 0.532
60.5693 0.521
60.5859 0.597
60.6024 0.553
60.6190 0.581
60.6355 0.619
60.6520 0.466
60.6686 0.630
60.6851 0.641
60.7017 0.603
60.7182 0.510
60.7348 0.696
60.7513 0.663
60.7679 0.679
60.7844 0.663
60.8010 0.630
60.8175 0.647
60.8340 0.690
60.8506 0.822
60.8671 0.729
60.8837 0.871
60.9002 0.893
60.9168 0.844
60.9333 0.838
60.9499 0.855
60.9664 0.888
60.9830 1.008
60.9995 1.052
61.0160 1.282
61.0326 1.271
61.0491 1.430
61.0657 1.567
61.0822 1.726
61.0988 1.940
61.1153 2.290
61.1319 2.329
61.1484 2.422
61.1650 2.263
61.1815 2.449
61.1980 2.356
61.2146 2.630
61.2311 2.778
61.2477 3.255
61.2642 3.200
61.2808 3.704
61.2973 3.995
61.3139 3.825
61.3304 3.781
61.3470 3.162
61.3635 2.367
61.3800 2.225
61.3966 2.247
61.4131 1.940
61.4297 1.742
61.4462 1.951
61.4628 1.984
61.4793 1.830
61.4959 1.792
61.5124 1.611
61.5290 1.463
61.5455 1.134
61.5620 0.921
61.5786 0.816
61.5951 0.756
61.6117 0.707
61.6282 0.586
61.6448 0.701
61.6613 0.745
61.6779 0.537
61.6944 0.542
61.7110 0.455
61.7275 0.504
61.7440 0.521
61.7606 0.542
61.7771 0.449
61.7937 0.515
61.8102 0.647
61.8268 0.597
61.8433 0.521
61.8599 0.548
61.8764 0.416
61.8930 0.482
61.9095 0.395
61.9260 0.532
61.9426 0.449
61.9591 0.542
61.9757 0.488
61.9922 0.553
62.0088 0.477
62.0253 0.466
62.0419 0.493
62.0584 0.493
62.0750 0.411
62.0915 0.493
62.1080 0.477
62.1246 0.433
62.1411 0.449
62.1577 0.455
62.1742 0.493
62.1908 0.537
62.2073 0.575
62.2239 0.460
62.2404 0.466
62.2570 0.477
62.2735 0.499
62.2900 0.389
62.3066 0.416
62.3231 0.515
62.3397 0.449
62.3562 0.405
62.3728 0.477
62.3893 0.466
62.4059 0.482
62.4224 0.526
62.4390 0.405
62.4555 0.433
62.4720 0.400
62.4886 0.405
62.5051 0.405
62.5217 0.488
62.5382 0.449
62.5548 0.477
62.5713 0.466
62.5879 0.553
62.6044 0.422
62.6210 0.416
62.6375 0.471
62.6540 0.537
62.6706 0.482
62.6871 0.559
62.7037 0.444
62.7202 0.460
62.7368 0.395
62.7533 0.570
62.7699 0.477
62.7864 0.433
62.8029 0.422
62.8195 0.433
62.8360 0.422
62.8526 0.477
62.8691 0.499
62.8857 0.521
62.9022 0.466
62.9188 0.466
62.9353 0.581
62.9519 0.471
62.9684 0.526
62.9849 0.384
63.0015 0.532
63.0180 0.378
63.0346 0.482
63.0511 0.384
63.0677 0.405
63.0842 0.504
63.1008 0.482
63.1173 0.444
63.1339 0.340
63.1504 0.488
63.1669 0.471
63.1835 0.493
63.2000 0.488
63.2166 0.416
63.2331 0.477
63.2497 0.499
63.2662 0.444
63.2828 0.400
63.2993 0.334
63.3159 0.427
63.3324 0.488
63.3489 0.455
63.3655 0.488
63.3820 0.455
63.3986 0.444
63.4151 0.504
63.4317 0.405
63.4482 0.581
63.4648 0.416
63.4813 0.455
63.4979 0.493
63.5144 0.356
63.5309 0.460
63.5475 0.373
63.5640 0.460
63.5806 0.471
63.5971 0.477
63.6137 0.444
63.6302 0.526
63.6468 0.499
63.6633 0.482
63.6799 0.471
63.6964 0.499
63.7129 0.460
63.7295 0.373
63.7460 0.548
63.7626 0.532
63.7791 0.405
63.7957 0.455
63.8122 0.471
63.8288 0.521
63.8453 0.460
63.8619 0.526
63.8784 0.400
63.8949 0.460
63.9115 0.444
63.9280 0.510
63.9446 0.433
63.9611 0.444
63.9777 0.477
63.9942 0.471
64.0108 0.455
64.0273 0.504
64.0439 0.416
64.0604 0.384
64.0769 0.499
64.0935 0.488
64.1100 0.493
64.1266 0.559
64.1431 0.384
64.1597 0.455
64.1762 0.471
64.1928 0.493
64.2093 0.504
64.2259 0.608
64.2424 0.433
64.2589 0.400
64.2755 0.532
64.2920 0.499
64.3086 0.455
64.3251 0.510
64.3417 0.438
64.3582 0.564
64.3748 0.416
64.3913 0.537
64.4079 0.427
64.4244 0.526
64.4409 0.521
64.4575 0.444
64.4740 0.471
64.4906 0.438
64.5071 0.416
64.5237 0.433
64.5402 0.488
64.5568 0.515
64.5733 0.493
64.5899 0.477
64.6064 0.570
64.6229 0.493
64.6395 0.466
64.6560 0.477
64.6726 0.449
64.6891 0.504
64.7057 0.433
64.7222 0.482
64.7388 0.597
64.7553 0.515
64.7719 0.449
64.7884 0.416
64.8049 0.466
64.8215 0.455
64.8380 0.553
64.8546 0.384
64.8711 0.614
64.8877 0.548
64.9042 0.477
64.9208 0.510
64.9373 0.504
64.9539 0.471
64.9704 0.444
64.9869 0.449
65.0035 0.395
65.0200 0.575
65.0366 0.400
65.0531 0.460
65.0697 0.466
65.0862 0.427
65.1028 0.466
65.1193 0.477
65.1359 0.427
65.1524 0.449
65.1689 0.493
65.1855 0.389
65.2020 0.444
65.2186 0.515
65.2351 0.482
65.2517 0.449
65.2682 0.438
65.2848 0.515
65.3013 0.477
65.3179 0.526
65.3344 0.504
65.3509 0.504
65.3675 0.592
65.3840 0.493
65.4006 0.384
65.4171 0.553
65.4337 0.532
65.4502 0.537
65.4668 0.466
65.4833 0.542
65.4999 0.521
65.5164 0.537
65.5329 0.542
65.5495 0.647
65.5660 0.559
65.5826 0.537
65.5991 0.597
65.6157 0.570
65.6322 0.630
65.6488 0.619
65.6653 0.592
65.6818 0.542
65.6984 0.592
65.7149 0.614
65.7315 0.532
65.7480 0.614
65.7646 0.636
65.7811 0.537
65.7977 0.542
65.8142 0.685
65.8308 0.603
65.8473 0.586
65.8638 0.581
65.8804 0.586
65.8969 0.679
65.9135 0.658
65.9300 0.740
65.9466 0.784
65.9631 0.696
65.9797 0.641
65.9962 0.751
66.0128 0.740
66.0293 0.816
66.0458 0.855
66.0624 0.910
66.0789 1.058
66.0955 0.822
66.1120 1.058
66.1286 1.123
66.1451 1.096
66.1617 1.134
66.1782 1.436
66.1948 1.408
66.2113 1.649
66.2278 1.852
66.2444 1.808
66.2609 2.027
66.2775 2.296
66.2940 2.619
66.3106 2.800
66.3271 3.167
66.3437 3.742
66.3602 4.005
66.3768 4.603
66.3933 5.419
66.4098 6.170
66.4264 6.921
66.4429 8.301
66.4595 9.989
66.4760 11.737
66.4926 12.455
66.5091 13.479
66.5257 13.605
66.5422 12.849
66.5588 11.299
66.5753 9.151
66.5918 7.978
66.6084 6.690
66.6249 6.460
66.6415 6.203
66.6580 6.400
66.6746 6.899
66.6911 7.151
66.7077 7.299
66.7242 6.915
66.7408 5.605
66.7573 4.778
66.7738 3.556
66.7904 2.696
66.8069 2.236
66.8235 1.858
66.8400 1.523
66.8566 1.359
66.8731 1.299
66.8897 1.271
66.9062 1.244
66.9228 1.003
66.9393 0.937
66.9558 1.019
66.9724 0.767
66.9889 0.773
67.0055 0.795
67.0220 0.773
67.0386 0.784
67.0551 0.805
67.0717 0.778
67.0882 0.690
67.1048 0.729
67.1213 0.641
67.1378 0.685
67.1544 0.663
67.1709 0.668
67.1875 0.827
67.2040 0.773
67.2206 0.762
67.2371 0.718
67.2537 0.614
67.2702 0.668
67.2868 0.663
67.3033 0.658
67.3198 0.756
67.3364 0.652
67.3529 0.586
67.3695 0.564
67.3860 0.690
67.4026 0.630
67.4191 0.745
67.4357 0.718
67.4522 0.707
67.4688 0.570
67.4853 0.805
67.5018 0.762
67.5184 0.652
67.5349 0.767
67.5515 0.855
67.5680 0.707
67.5846 0.778
67.6011 0.833
67.6177 0.888
67.6342 0.751
67.6508 0.970
67.6673 0.904
67.6838 0.789
67.7004 0.899
67.7169 0.986
67.7335 1.173
67.7500 1.277
67.7666 1.036
67.7831 1.101
67.7997 1.496
67.8162 1.562
67.8328 1.540
67.8493 1.638
67.8658 1.732
67.8824 1.868
67.8989 2.236
67.9155 2.153
67.9320 2.427
67.9486 2.674
67.9651 2.805
67.9817 3.452
67.9982 4.099
68.0148 4.625
68.0313 5.134
68.0478 5.638
68.0644 6.586
68.0809 7.688
68.0975 8.997
68.1140 10.504
68.1306 12.312
68.1471 13.715
68.1637 16.586
68.1802 18.488
68.1968 19.496
68.2133 20.263
68.2298 19.107
68.2464 16.652
68.2629 13.781
68.2795 11.479
68.2960 9.951
68.3126 8.893
68.3291 8.838
68.3457 9.430
68.3622 9.704
68.3787 10.427
68.3953 10.411
68.4118 9.693
68.4284 8.975
68.4449 7.797
68.4615 6.433
68.4780 4.784
68.4946 3.458
68.5111 2.921
68.5277 2.241
68.5442 2.022
68.5607 1.660
68.5773 1.321
68.5938 1.030
68.6104 1.167
68.6269 1.184
68.6435 1.014
68.6600 0.855
68.6766 0.871
68.6931 0.871
68.7097 0.888
68.7262 0.860
68.7427 0.723
68.7593 0.674
68.7758 0.712
68.7924 0.729
68.8089 0.685
68.8255 0.723
68.8420 0.647
68.8586 0.690
68.8751 0.663
68.8917 0.729
68.9082 0.564
68.9247 0.564
68.9413 0.608
68.9578 0.608
68.9744 0.581
68.9909 0.636
69.0075 0.597
69.0240 0.515
69.0406 0.499
69.0571 0.548
69.0737 0.586
69.0902 0.460
69.1067 0.570
69.1233 0.581
69.1398 0.504
69.1564 0.433
69.1729 0.471
69.1895 0.608
69.2060 0.548
69.2226 0.449
69.2391 0.499
69.2557 0.471
69.2722 0.482
69.2887 0.466
69.3053 0.455
69.3218 0.488
69.3384 0.482
69.3549 0.510
69.3715 0.466
69.3880 0.488
69.4046 0.405
69.4211 0.433
69.4377 0.449
69.4542 0.438
69.4707 0.384
69.4873 0.433
69.5038 0.373
69.5204 0.548
69.5369 0.455
69.5535 0.427
69.5700 0.433
69.5866 0.493
69.6031 0.405
69.6197 0.384
69.6362 0.433
69.6527 0.416
69.6693 0.526
69.6858 0.504
69.7024 0.471
69.7189 0.455
69.7355 0.488
69.7520 0.488
69.7686 0.537
69.7851 0.460
69.8017 0.477
69.8182 0.444
69.8347 0.460
69.8513 0.460
69.8678 0.449
69.8844 0.499
69.9009 0.488
69.9175 0.416
69.9340 0.449
69.9506 0.521
69.9671 0.559
69.9837 0.521
70.0002 0.471
